# OpenSignals Text File Format
# {"CC:78:AB:5E:8E:CE":{"sensor":["RAW"],"device name":"CC:78:AB:5E:8E:CE","column":["nSeq","I1","I2","O1","O2","A1"],"sync interval":2,"time":"12:00:53","comments":"","device connection":"BLECC:78:AB:5E:8E:CE","channels":[1],"date":"2022-04-28","mode":0,"digital IO":[0,0,1,1],"firmware version":0,"device":"bitalino_rev","position":0,"sampling rate":100,"label":["A1"],"resolution":[10],"special":[{}]}}
# EndOfHeader
0	0	0	0	0	524
1	0	0	0	0	506
2	0	0	0	0	522
3	0	0	0	0	510
4	0	0	0	0	518
5	0	0	0	0	507
6	0	0	0	0	522
7	0	0	0	0	512
8	0	0	0	0	515
9	0	0	0	0	519
10	0	0	0	0	509
11	0	0	0	0	514
12	0	0	0	0	514
13	0	0	0	0	517
14	0	0	0	0	521
15	0	0	0	0	510
0	0	0	0	0	508
1	0	0	0	0	515
2	0	0	0	0	513
3	0	0	0	0	508
4	0	0	0	0	502
5	0	0	0	0	518
6	0	0	0	0	511
7	0	0	0	0	517
8	0	0	0	0	502
9	0	0	0	0	534
10	0	0	0	0	504
11	0	0	0	0	516
12	0	0	0	0	499
13	0	0	0	0	514
14	0	0	0	0	501
15	0	0	0	0	521
0	0	0	0	0	503
1	0	0	0	0	515
2	0	0	0	0	505
3	0	0	0	0	519
4	0	0	0	0	513
5	0	0	0	0	526
6	0	0	0	0	502
7	0	0	0	0	529
8	0	0	0	0	495
9	0	0	0	0	529
10	0	0	0	0	503
11	0	0	0	0	526
12	0	0	0	0	489
13	0	0	0	0	542
14	0	0	0	0	501
15	0	0	0	0	524
0	0	0	0	0	493
1	0	0	0	0	524
2	0	0	0	0	506
3	0	0	0	0	525
4	0	0	0	0	505
5	0	0	0	0	524
6	0	0	0	0	491
7	0	0	0	0	520
8	0	0	0	0	491
9	0	0	0	0	524
10	0	0	0	0	501
11	0	0	0	0	529
12	0	0	0	0	504
13	0	0	0	0	529
14	0	0	0	0	496
15	0	0	0	0	522
0	0	0	0	0	492
1	0	0	0	0	518
2	0	0	0	0	499
3	0	0	0	0	521
4	0	0	0	0	499
5	0	0	0	0	529
6	0	0	0	0	503
7	0	0	0	0	528
8	0	0	0	0	502
9	0	0	0	0	516
10	0	0	0	0	483
11	0	0	0	0	534
12	0	0	0	0	499
13	0	0	0	0	543
14	0	0	0	0	486
15	0	0	0	0	516
0	0	0	0	0	495
1	0	0	0	0	533
2	0	0	0	0	505
3	0	0	0	0	525
4	0	0	0	0	505
5	0	0	0	0	528
6	0	0	0	0	495
7	0	0	0	0	536
8	0	0	0	0	492
9	0	0	0	0	530
10	0	0	0	0	490
11	0	0	0	0	523
12	0	0	0	0	496
13	0	0	0	0	550
14	0	0	0	0	499
15	0	0	0	0	539
0	0	0	0	0	487
1	0	0	0	0	539
2	0	0	0	0	490
3	0	0	0	0	473
4	0	0	0	0	467
5	0	0	0	0	527
6	0	0	0	0	366
7	0	0	0	0	731
8	0	0	0	0	496
9	0	0	0	0	580
10	0	0	0	0	235
11	0	0	0	0	897
12	0	0	0	0	89
13	0	0	0	0	1022
14	0	0	0	0	896
15	0	0	0	0	1022
0	0	0	0	0	208
1	0	0	0	0	116
2	0	0	0	0	575
3	0	0	0	0	403
4	0	0	0	0	974
5	0	0	0	0	45
6	0	0	0	0	0
7	0	0	0	0	117
8	0	0	0	0	414
9	0	0	0	0	490
10	0	0	0	0	509
11	0	0	0	0	507
12	0	0	0	0	509
13	0	0	0	0	516
14	0	0	0	0	511
15	0	0	0	0	507
0	0	0	0	0	509
1	0	0	0	0	513
2	0	0	0	0	515
3	0	0	0	0	521
4	0	0	0	0	516
5	0	0	0	0	517
6	0	0	0	0	509
7	0	0	0	0	507
8	0	0	0	0	636
9	0	0	0	0	945
10	0	0	0	0	805
11	0	0	0	0	564
12	0	0	0	0	1022
13	0	0	0	0	311
14	0	0	0	0	73
15	0	0	0	0	536
0	0	0	0	0	471
1	0	0	0	0	1022
2	0	0	0	0	51
3	0	0	0	0	0
4	0	0	0	0	367
5	0	0	0	0	125
6	0	0	0	0	1022
7	0	0	0	0	148
8	0	0	0	0	451
9	0	0	0	0	357
10	0	0	0	0	390
11	0	0	0	0	636
12	0	0	0	0	277
13	0	0	0	0	362
14	0	0	0	0	747
15	0	0	0	0	391
0	0	0	0	0	675
1	0	0	0	0	156
2	0	0	0	0	728
3	0	0	0	0	595
4	0	0	0	0	1022
5	0	0	0	0	169
6	0	0	0	0	56
7	0	0	0	0	1022
8	0	0	0	0	346
9	0	0	0	0	226
10	0	0	0	0	505
11	0	0	0	0	552
12	0	0	0	0	581
13	0	0	0	0	158
14	0	0	0	0	457
15	0	0	0	0	340
0	0	0	0	0	549
1	0	0	0	0	492
2	0	0	0	0	574
3	0	0	0	0	530
4	0	0	0	0	545
5	0	0	0	0	466
6	0	0	0	0	520
7	0	0	0	0	412
8	0	0	0	0	690
9	0	0	0	0	391
10	0	0	0	0	560
11	0	0	0	0	515
12	0	0	0	0	529
13	0	0	0	0	456
14	0	0	0	0	392
15	0	0	0	0	487
0	0	0	0	0	693
1	0	0	0	0	433
2	0	0	0	0	536
3	0	0	0	0	566
4	0	0	0	0	530
5	0	0	0	0	548
6	0	0	0	0	478
7	0	0	0	0	448
8	0	0	0	0	509
9	0	0	0	0	527
10	0	0	0	0	512
11	0	0	0	0	482
12	0	0	0	0	545
13	0	0	0	0	568
14	0	0	0	0	506
15	0	0	0	0	467
0	0	0	0	0	515
1	0	0	0	0	508
2	0	0	0	0	513
3	0	0	0	0	520
4	0	0	0	0	528
5	0	0	0	0	517
6	0	0	0	0	504
7	0	0	0	0	506
8	0	0	0	0	524
9	0	0	0	0	443
10	0	0	0	0	515
11	0	0	0	0	506
12	0	0	0	0	445
13	0	0	0	0	624
14	0	0	0	0	531
15	0	0	0	0	474
0	0	0	0	0	605
1	0	0	0	0	517
2	0	0	0	0	508
3	0	0	0	0	528
4	0	0	0	0	472
5	0	0	0	0	629
6	0	0	0	0	489
7	0	0	0	0	484
8	0	0	0	0	569
9	0	0	0	0	544
10	0	0	0	0	523
11	0	0	0	0	515
12	0	0	0	0	492
13	0	0	0	0	534
14	0	0	0	0	483
15	0	0	0	0	566
0	0	0	0	0	515
1	0	0	0	0	471
2	0	0	0	0	510
3	0	0	0	0	495
4	0	0	0	0	518
5	0	0	0	0	497
6	0	0	0	0	505
7	0	0	0	0	479
8	0	0	0	0	530
9	0	0	0	0	474
10	0	0	0	0	528
11	0	0	0	0	469
12	0	0	0	0	551
13	0	0	0	0	436
14	0	0	0	0	611
15	0	0	0	0	457
0	0	0	0	0	537
1	0	0	0	0	481
2	0	0	0	0	600
3	0	0	0	0	511
4	0	0	0	0	538
5	0	0	0	0	476
6	0	0	0	0	549
7	0	0	0	0	524
8	0	0	0	0	569
9	0	0	0	0	503
10	0	0	0	0	507
11	0	0	0	0	497
12	0	0	0	0	544
13	0	0	0	0	465
14	0	0	0	0	541
15	0	0	0	0	487
0	0	0	0	0	508
1	0	0	0	0	470
2	0	0	0	0	499
3	0	0	0	0	508
4	0	0	0	0	467
5	0	0	0	0	484
6	0	0	0	0	520
7	0	0	0	0	508
8	0	0	0	0	519
9	0	0	0	0	548
10	0	0	0	0	524
11	0	0	0	0	479
12	0	0	0	0	550
13	0	0	0	0	486
14	0	0	0	0	516
15	0	0	0	0	465
0	0	0	0	0	588
1	0	0	0	0	479
2	0	0	0	0	674
3	0	0	0	0	459
4	0	0	0	0	539
5	0	0	0	0	474
6	0	0	0	0	558
7	0	0	0	0	491
8	0	0	0	0	524
9	0	0	0	0	496
10	0	0	0	0	514
11	0	0	0	0	484
12	0	0	0	0	516
13	0	0	0	0	483
14	0	0	0	0	535
15	0	0	0	0	546
0	0	0	0	0	524
1	0	0	0	0	485
2	0	0	0	0	484
3	0	0	0	0	488
4	0	0	0	0	497
5	0	0	0	0	479
6	0	0	0	0	518
7	0	0	0	0	474
8	0	0	0	0	545
9	0	0	0	0	498
10	0	0	0	0	544
11	0	0	0	0	505
12	0	0	0	0	543
13	0	0	0	0	480
14	0	0	0	0	535
15	0	0	0	0	505
0	0	0	0	0	547
1	0	0	0	0	480
2	0	0	0	0	533
3	0	0	0	0	490
4	0	0	0	0	540
5	0	0	0	0	485
6	0	0	0	0	536
7	0	0	0	0	494
8	0	0	0	0	525
9	0	0	0	0	483
10	0	0	0	0	542
11	0	0	0	0	504
12	0	0	0	0	541
13	0	0	0	0	486
14	0	0	0	0	550
15	0	0	0	0	484
0	0	0	0	0	538
1	0	0	0	0	483
2	0	0	0	0	526
3	0	0	0	0	504
4	0	0	0	0	530
5	0	0	0	0	470
6	0	0	0	0	551
7	0	0	0	0	487
8	0	0	0	0	551
9	0	0	0	0	493
10	0	0	0	0	535
11	0	0	0	0	483
12	0	0	0	0	552
13	0	0	0	0	498
14	0	0	0	0	547
15	0	0	0	0	481
0	0	0	0	0	556
1	0	0	0	0	491
2	0	0	0	0	545
3	0	0	0	0	482
4	0	0	0	0	540
5	0	0	0	0	484
6	0	0	0	0	544
7	0	0	0	0	481
8	0	0	0	0	544
9	0	0	0	0	481
10	0	0	0	0	549
11	0	0	0	0	473
12	0	0	0	0	543
13	0	0	0	0	478
14	0	0	0	0	549
15	0	0	0	0	479
0	0	0	0	0	546
1	0	0	0	0	499
2	0	0	0	0	550
3	0	0	0	0	479
4	0	0	0	0	548
5	0	0	0	0	472
6	0	0	0	0	545
7	0	0	0	0	485
8	0	0	0	0	545
9	0	0	0	0	483
10	0	0	0	0	548
11	0	0	0	0	486
12	0	0	0	0	554
13	0	0	0	0	480
14	0	0	0	0	546
15	0	0	0	0	472
0	0	0	0	0	549
1	0	0	0	0	474
2	0	0	0	0	539
3	0	0	0	0	480
4	0	0	0	0	556
5	0	0	0	0	483
6	0	0	0	0	543
7	0	0	0	0	480
8	0	0	0	0	549
9	0	0	0	0	475
10	0	0	0	0	553
11	0	0	0	0	470
12	0	0	0	0	542
13	0	0	0	0	467
14	0	0	0	0	550
15	0	0	0	0	483
0	0	0	0	0	549
1	0	0	0	0	484
2	0	0	0	0	554
3	0	0	0	0	475
4	0	0	0	0	556
5	0	0	0	0	472
6	0	0	0	0	547
7	0	0	0	0	475
8	0	0	0	0	548
9	0	0	0	0	485
10	0	0	0	0	550
11	0	0	0	0	477
12	0	0	0	0	545
13	0	0	0	0	471
14	0	0	0	0	552
15	0	0	0	0	472
0	0	0	0	0	558
1	0	0	0	0	485
2	0	0	0	0	557
3	0	0	0	0	472
4	0	0	0	0	554
5	0	0	0	0	476
6	0	0	0	0	554
7	0	0	0	0	475
8	0	0	0	0	546
9	0	0	0	0	467
10	0	0	0	0	559
11	0	0	0	0	475
12	0	0	0	0	543
13	0	0	0	0	471
14	0	0	0	0	564
15	0	0	0	0	475
0	0	0	0	0	554
1	0	0	0	0	471
2	0	0	0	0	551
3	0	0	0	0	465
4	0	0	0	0	551
5	0	0	0	0	472
6	0	0	0	0	556
7	0	0	0	0	474
8	0	0	0	0	565
9	0	0	0	0	469
10	0	0	0	0	546
11	0	0	0	0	476
12	0	0	0	0	556
13	0	0	0	0	475
14	0	0	0	0	551
15	0	0	0	0	467
0	0	0	0	0	558
1	0	0	0	0	464
2	0	0	0	0	553
3	0	0	0	0	468
4	0	0	0	0	550
5	0	0	0	0	464
6	0	0	0	0	556
7	0	0	0	0	464
8	0	0	0	0	557
9	0	0	0	0	467
10	0	0	0	0	559
11	0	0	0	0	470
12	0	0	0	0	560
13	0	0	0	0	478
14	0	0	0	0	559
15	0	0	0	0	472
0	0	0	0	0	557
1	0	0	0	0	463
2	0	0	0	0	551
3	0	0	0	0	460
4	0	0	0	0	561
5	0	0	0	0	469
6	0	0	0	0	566
7	0	0	0	0	459
8	0	0	0	0	557
9	0	0	0	0	468
10	0	0	0	0	549
11	0	0	0	0	477
12	0	0	0	0	567
13	0	0	0	0	465
14	0	0	0	0	550
15	0	0	0	0	479
0	0	0	0	0	576
1	0	0	0	0	475
2	0	0	0	0	577
3	0	0	0	0	443
4	0	0	0	0	556
5	0	0	0	0	468
6	0	0	0	0	559
7	0	0	0	0	467
8	0	0	0	0	576
9	0	0	0	0	468
10	0	0	0	0	569
11	0	0	0	0	468
12	0	0	0	0	567
13	0	0	0	0	468
14	0	0	0	0	567
15	0	0	0	0	457
0	0	0	0	0	559
1	0	0	0	0	453
2	0	0	0	0	568
3	0	0	0	0	455
4	0	0	0	0	549
5	0	0	0	0	467
6	0	0	0	0	489
7	0	0	0	0	462
8	0	0	0	0	632
9	0	0	0	0	620
10	0	0	0	0	510
11	0	0	0	0	698
12	0	0	0	0	299
13	0	0	0	0	463
14	0	0	0	0	916
15	0	0	0	0	668
0	0	0	0	0	965
1	0	0	0	0	197
2	0	0	0	0	850
3	0	0	0	0	0
4	0	0	0	0	1022
5	0	0	0	0	220
6	0	0	0	0	0
7	0	0	0	0	243
8	0	0	0	0	459
9	0	0	0	0	498
10	0	0	0	0	516
11	0	0	0	0	518
12	0	0	0	0	528
13	0	0	0	0	516
14	0	0	0	0	515
15	0	0	0	0	507
0	0	0	0	0	514
1	0	0	0	0	518
2	0	0	0	0	523
3	0	0	0	0	514
4	0	0	0	0	500
5	0	0	0	0	508
6	0	0	0	0	514
7	0	0	0	0	534
8	0	0	0	0	138
9	0	0	0	0	291
10	0	0	0	0	0
11	0	0	0	0	515
12	0	0	0	0	370
13	0	0	0	0	438
14	0	0	0	0	286
15	0	0	0	0	712
0	0	0	0	0	1022
1	0	0	0	0	129
2	0	0	0	0	118
3	0	0	0	0	345
4	0	0	0	0	1022
5	0	0	0	0	764
6	0	0	0	0	476
7	0	0	0	0	590
8	0	0	0	0	1022
9	0	0	0	0	820
10	0	0	0	0	41
11	0	0	0	0	123
12	0	0	0	0	194
13	0	0	0	0	1022
14	0	0	0	0	212
15	0	0	0	0	1022
0	0	0	0	0	290
1	0	0	0	0	730
2	0	0	0	0	630
3	0	0	0	0	417
4	0	0	0	0	486
5	0	0	0	0	286
6	0	0	0	0	1015
7	0	0	0	0	887
8	0	0	0	0	377
9	0	0	0	0	442
10	0	0	0	0	738
11	0	0	0	0	260
12	0	0	0	0	795
13	0	0	0	0	687
14	0	0	0	0	334
15	0	0	0	0	452
0	0	0	0	0	983
1	0	0	0	0	503
2	0	0	0	0	860
3	0	0	0	0	923
4	0	0	0	0	400
5	0	0	0	0	422
6	0	0	0	0	622
7	0	0	0	0	583
8	0	0	0	0	508
9	0	0	0	0	655
10	0	0	0	0	172
11	0	0	0	0	431
12	0	0	0	0	509
13	0	0	0	0	259
14	0	0	0	0	378
15	0	0	0	0	696
0	0	0	0	0	492
1	0	0	0	0	621
2	0	0	0	0	363
3	0	0	0	0	598
4	0	0	0	0	342
5	0	0	0	0	558
6	0	0	0	0	523
7	0	0	0	0	441
8	0	0	0	0	595
9	0	0	0	0	478
10	0	0	0	0	713
11	0	0	0	0	535
12	0	0	0	0	573
13	0	0	0	0	524
14	0	0	0	0	509
15	0	0	0	0	443
0	0	0	0	0	733
1	0	0	0	0	505
2	0	0	0	0	532
3	0	0	0	0	487
4	0	0	0	0	498
5	0	0	0	0	482
6	0	0	0	0	523
7	0	0	0	0	628
8	0	0	0	0	482
9	0	0	0	0	521
10	0	0	0	0	504
11	0	0	0	0	445
12	0	0	0	0	736
13	0	0	0	0	524
14	0	0	0	0	460
15	0	0	0	0	519
0	0	0	0	0	490
1	0	0	0	0	543
2	0	0	0	0	529
3	0	0	0	0	475
4	0	0	0	0	591
5	0	0	0	0	458
6	0	0	0	0	549
7	0	0	0	0	515
8	0	0	0	0	552
9	0	0	0	0	493
10	0	0	0	0	536
11	0	0	0	0	463
12	0	0	0	0	500
13	0	0	0	0	461
14	0	0	0	0	509
15	0	0	0	0	490
0	0	0	0	0	544
1	0	0	0	0	469
2	0	0	0	0	558
3	0	0	0	0	472
4	0	0	0	0	538
5	0	0	0	0	466
6	0	0	0	0	565
7	0	0	0	0	443
8	0	0	0	0	528
9	0	0	0	0	513
10	0	0	0	0	506
11	0	0	0	0	566
12	0	0	0	0	502
13	0	0	0	0	464
14	0	0	0	0	535
15	0	0	0	0	456
0	0	0	0	0	542
1	0	0	0	0	472
2	0	0	0	0	564
3	0	0	0	0	477
4	0	0	0	0	579
5	0	0	0	0	455
6	0	0	0	0	553
7	0	0	0	0	480
8	0	0	0	0	547
9	0	0	0	0	477
10	0	0	0	0	565
11	0	0	0	0	516
12	0	0	0	0	527
13	0	0	0	0	534
14	0	0	0	0	536
15	0	0	0	0	480
0	0	0	0	0	542
1	0	0	0	0	467
2	0	0	0	0	535
3	0	0	0	0	480
4	0	0	0	0	579
5	0	0	0	0	461
6	0	0	0	0	576
7	0	0	0	0	511
8	0	0	0	0	534
9	0	0	0	0	478
10	0	0	0	0	549
11	0	0	0	0	485
12	0	0	0	0	573
13	0	0	0	0	456
14	0	0	0	0	563
15	0	0	0	0	501
0	0	0	0	0	528
1	0	0	0	0	481
2	0	0	0	0	524
3	0	0	0	0	472
4	0	0	0	0	555
5	0	0	0	0	474
6	0	0	0	0	525
7	0	0	0	0	487
8	0	0	0	0	519
9	0	0	0	0	463
10	0	0	0	0	555
11	0	0	0	0	465
12	0	0	0	0	628
13	0	0	0	0	451
14	0	0	0	0	534
15	0	0	0	0	484
0	0	0	0	0	532
1	0	0	0	0	500
2	0	0	0	0	541
3	0	0	0	0	487
4	0	0	0	0	575
5	0	0	0	0	475
6	0	0	0	0	526
7	0	0	0	0	500
8	0	0	0	0	509
9	0	0	0	0	510
10	0	0	0	0	553
11	0	0	0	0	468
12	0	0	0	0	515
13	0	0	0	0	481
14	0	0	0	0	535
15	0	0	0	0	464
0	0	0	0	0	551
1	0	0	0	0	482
2	0	0	0	0	522
3	0	0	0	0	451
4	0	0	0	0	550
5	0	0	0	0	467
6	0	0	0	0	516
7	0	0	0	0	487
8	0	0	0	0	550
9	0	0	0	0	496
10	0	0	0	0	528
11	0	0	0	0	453
12	0	0	0	0	603
13	0	0	0	0	463
14	0	0	0	0	577
15	0	0	0	0	479
0	0	0	0	0	517
1	0	0	0	0	489
2	0	0	0	0	534
3	0	0	0	0	500
4	0	0	0	0	586
5	0	0	0	0	446
6	0	0	0	0	620
7	0	0	0	0	484
8	0	0	0	0	534
9	0	0	0	0	497
10	0	0	0	0	549
11	0	0	0	0	488
12	0	0	0	0	536
13	0	0	0	0	473
14	0	0	0	0	570
15	0	0	0	0	486
0	0	0	0	0	536
1	0	0	0	0	462
2	0	0	0	0	598
3	0	0	0	0	468
4	0	0	0	0	546
5	0	0	0	0	488
6	0	0	0	0	535
7	0	0	0	0	476
8	0	0	0	0	542
9	0	0	0	0	499
10	0	0	0	0	534
11	0	0	0	0	507
12	0	0	0	0	558
13	0	0	0	0	488
14	0	0	0	0	542
15	0	0	0	0	487
0	0	0	0	0	506
1	0	0	0	0	456
2	0	0	0	0	508
3	0	0	0	0	506
4	0	0	0	0	552
5	0	0	0	0	492
6	0	0	0	0	553
7	0	0	0	0	459
8	0	0	0	0	529
9	0	0	0	0	499
10	0	0	0	0	541
11	0	0	0	0	489
12	0	0	0	0	489
13	0	0	0	0	478
14	0	0	0	0	537
15	0	0	0	0	513
0	0	0	0	0	543
1	0	0	0	0	494
2	0	0	0	0	585
3	0	0	0	0	483
4	0	0	0	0	543
5	0	0	0	0	487
6	0	0	0	0	537
7	0	0	0	0	492
8	0	0	0	0	551
9	0	0	0	0	480
10	0	0	0	0	546
11	0	0	0	0	466
12	0	0	0	0	547
13	0	0	0	0	479
14	0	0	0	0	547
15	0	0	0	0	472
0	0	0	0	0	537
1	0	0	0	0	483
2	0	0	0	0	551
3	0	0	0	0	474
4	0	0	0	0	547
5	0	0	0	0	461
6	0	0	0	0	548
7	0	0	0	0	484
8	0	0	0	0	551
9	0	0	0	0	473
10	0	0	0	0	546
11	0	0	0	0	475
12	0	0	0	0	546
13	0	0	0	0	483
14	0	0	0	0	548
15	0	0	0	0	471
0	0	0	0	0	545
1	0	0	0	0	480
2	0	0	0	0	554
3	0	0	0	0	483
4	0	0	0	0	557
5	0	0	0	0	477
6	0	0	0	0	548
7	0	0	0	0	480
8	0	0	0	0	546
9	0	0	0	0	477
10	0	0	0	0	551
11	0	0	0	0	472
12	0	0	0	0	560
13	0	0	0	0	482
14	0	0	0	0	548
15	0	0	0	0	496
0	0	0	0	0	549
1	0	0	0	0	474
2	0	0	0	0	547
3	0	0	0	0	470
4	0	0	0	0	547
5	0	0	0	0	472
6	0	0	0	0	562
7	0	0	0	0	479
8	0	0	0	0	536
9	0	0	0	0	488
10	0	0	0	0	550
11	0	0	0	0	481
12	0	0	0	0	555
13	0	0	0	0	478
14	0	0	0	0	556
15	0	0	0	0	483
0	0	0	0	0	548
1	0	0	0	0	487
2	0	0	0	0	549
3	0	0	0	0	474
4	0	0	0	0	555
5	0	0	0	0	479
6	0	0	0	0	538
7	0	0	0	0	483
8	0	0	0	0	556
9	0	0	0	0	471
10	0	0	0	0	551
11	0	0	0	0	476
12	0	0	0	0	557
13	0	0	0	0	476
14	0	0	0	0	563
15	0	0	0	0	461
0	0	0	0	0	558
1	0	0	0	0	472
2	0	0	0	0	542
3	0	0	0	0	472
4	0	0	0	0	551
5	0	0	0	0	478
6	0	0	0	0	561
7	0	0	0	0	466
8	0	0	0	0	564
9	0	0	0	0	475
10	0	0	0	0	554
11	0	0	0	0	480
12	0	0	0	0	554
13	0	0	0	0	473
14	0	0	0	0	556
15	0	0	0	0	475
0	0	0	0	0	550
1	0	0	0	0	464
2	0	0	0	0	556
3	0	0	0	0	465
4	0	0	0	0	555
5	0	0	0	0	474
6	0	0	0	0	570
7	0	0	0	0	462
8	0	0	0	0	559
9	0	0	0	0	467
10	0	0	0	0	562
11	0	0	0	0	471
12	0	0	0	0	561
13	0	0	0	0	469
14	0	0	0	0	547
15	0	0	0	0	480
0	0	0	0	0	552
1	0	0	0	0	466
2	0	0	0	0	558
3	0	0	0	0	470
4	0	0	0	0	554
5	0	0	0	0	470
6	0	0	0	0	562
7	0	0	0	0	454
8	0	0	0	0	557
9	0	0	0	0	457
10	0	0	0	0	558
11	0	0	0	0	475
12	0	0	0	0	563
13	0	0	0	0	478
14	0	0	0	0	564
15	0	0	0	0	470
0	0	0	0	0	559
1	0	0	0	0	457
2	0	0	0	0	553
3	0	0	0	0	466
4	0	0	0	0	558
5	0	0	0	0	471
6	0	0	0	0	561
7	0	0	0	0	470
8	0	0	0	0	554
9	0	0	0	0	460
10	0	0	0	0	577
11	0	0	0	0	467
12	0	0	0	0	563
13	0	0	0	0	471
14	0	0	0	0	562
15	0	0	0	0	466
0	0	0	0	0	562
1	0	0	0	0	468
2	0	0	0	0	566
3	0	0	0	0	469
4	0	0	0	0	557
5	0	0	0	0	457
6	0	0	0	0	557
7	0	0	0	0	459
8	0	0	0	0	565
9	0	0	0	0	464
10	0	0	0	0	547
11	0	0	0	0	461
12	0	0	0	0	577
13	0	0	0	0	464
14	0	0	0	0	566
15	0	0	0	0	463
0	0	0	0	0	557
1	0	0	0	0	460
2	0	0	0	0	574
3	0	0	0	0	464
4	0	0	0	0	561
5	0	0	0	0	472
6	0	0	0	0	551
7	0	0	0	0	458
8	0	0	0	0	565
9	0	0	0	0	455
10	0	0	0	0	572
11	0	0	0	0	453
12	0	0	0	0	567
13	0	0	0	0	456
14	0	0	0	0	564
15	0	0	0	0	469
0	0	0	0	0	562
1	0	0	0	0	463
2	0	0	0	0	565
3	0	0	0	0	461
4	0	0	0	0	561
5	0	0	0	0	463
6	0	0	0	0	558
7	0	0	0	0	447
8	0	0	0	0	561
9	0	0	0	0	463
10	0	0	0	0	573
11	0	0	0	0	469
12	0	0	0	0	556
13	0	0	0	0	467
14	0	0	0	0	575
15	0	0	0	0	453
0	0	0	0	0	564
1	0	0	0	0	432
2	0	0	0	0	582
3	0	0	0	0	468
4	0	0	0	0	581
5	0	0	0	0	465
6	0	0	0	0	575
7	0	0	0	0	461
8	0	0	0	0	569
9	0	0	0	0	455
10	0	0	0	0	558
11	0	0	0	0	455
12	0	0	0	0	570
13	0	0	0	0	451
14	0	0	0	0	563
15	0	0	0	0	459
0	0	0	0	0	577
1	0	0	0	0	455
2	0	0	0	0	566
3	0	0	0	0	447
4	0	0	0	0	565
5	0	0	0	0	455
6	0	0	0	0	582
7	0	0	0	0	470
8	0	0	0	0	575
9	0	0	0	0	462
10	0	0	0	0	577
11	0	0	0	0	456
12	0	0	0	0	579
13	0	0	0	0	460
14	0	0	0	0	575
15	0	0	0	0	454
0	0	0	0	0	569
1	0	0	0	0	478
2	0	0	0	0	553
3	0	0	0	0	489
4	0	0	0	0	574
5	0	0	0	0	400
6	0	0	0	0	555
7	0	0	0	0	390
8	0	0	0	0	624
9	0	0	0	0	506
10	0	0	0	0	450
11	0	0	0	0	509
12	0	0	0	0	76
13	0	0	0	0	297
14	0	0	0	0	816
15	0	0	0	0	0
0	0	0	0	0	620
1	0	0	0	0	700
2	0	0	0	0	227
3	0	0	0	0	1022
4	0	0	0	0	0
5	0	0	0	0	407
6	0	0	0	0	483
7	0	0	0	0	515
8	0	0	0	0	511
9	0	0	0	0	524
10	0	0	0	0	514
11	0	0	0	0	511
12	0	0	0	0	513
13	0	0	0	0	531
14	0	0	0	0	514
15	0	0	0	0	519
0	0	0	0	0	508
1	0	0	0	0	513
2	0	0	0	0	515
3	0	0	0	0	515
4	0	0	0	0	508
5	0	0	0	0	613
6	0	0	0	0	252
7	0	0	0	0	447
8	0	0	0	0	641
9	0	0	0	0	0
10	0	0	0	0	675
11	0	0	0	0	635
12	0	0	0	0	773
13	0	0	0	0	228
14	0	0	0	0	606
15	0	0	0	0	217
0	0	0	0	0	1022
1	0	0	0	0	0
2	0	0	0	0	411
3	0	0	0	0	275
4	0	0	0	0	171
5	0	0	0	0	438
6	0	0	0	0	354
7	0	0	0	0	1022
8	0	0	0	0	194
9	0	0	0	0	527
10	0	0	0	0	186
11	0	0	0	0	467
12	0	0	0	0	239
13	0	0	0	0	492
14	0	0	0	0	462
15	0	0	0	0	494
0	0	0	0	0	463
1	0	0	0	0	1022
2	0	0	0	0	225
3	0	0	0	0	603
4	0	0	0	0	481
5	0	0	0	0	477
6	0	0	0	0	788
7	0	0	0	0	177
8	0	0	0	0	550
9	0	0	0	0	483
10	0	0	0	0	432
11	0	0	0	0	417
12	0	0	0	0	586
13	0	0	0	0	241
14	0	0	0	0	519
15	0	0	0	0	449
0	0	0	0	0	404
1	0	0	0	0	608
2	0	0	0	0	420
3	0	0	0	0	455
4	0	0	0	0	611
5	0	0	0	0	537
6	0	0	0	0	566
7	0	0	0	0	569
8	0	0	0	0	498
9	0	0	0	0	541
10	0	0	0	0	539
11	0	0	0	0	469
12	0	0	0	0	455
13	0	0	0	0	529
14	0	0	0	0	517
15	0	0	0	0	501
0	0	0	0	0	517
1	0	0	0	0	545
2	0	0	0	0	528
3	0	0	0	0	397
4	0	0	0	0	564
5	0	0	0	0	464
6	0	0	0	0	477
7	0	0	0	0	570
8	0	0	0	0	545
9	0	0	0	0	693
10	0	0	0	0	519
11	0	0	0	0	462
12	0	0	0	0	575
13	0	0	0	0	461
14	0	0	0	0	556
15	0	0	0	0	639
0	0	0	0	0	536
1	0	0	0	0	492
2	0	0	0	0	510
3	0	0	0	0	575
4	0	0	0	0	495
5	0	0	0	0	467
6	0	0	0	0	531
7	0	0	0	0	593
8	0	0	0	0	505
9	0	0	0	0	464
10	0	0	0	0	531
11	0	0	0	0	473
12	0	0	0	0	558
13	0	0	0	0	480
14	0	0	0	0	508
15	0	0	0	0	483
0	0	0	0	0	509
1	0	0	0	0	483
2	0	0	0	0	516
3	0	0	0	0	548
4	0	0	0	0	545
5	0	0	0	0	531
6	0	0	0	0	542
7	0	0	0	0	476
8	0	0	0	0	550
9	0	0	0	0	483
10	0	0	0	0	505
11	0	0	0	0	553
12	0	0	0	0	529
13	0	0	0	0	492
14	0	0	0	0	527
15	0	0	0	0	471
0	0	0	0	0	532
1	0	0	0	0	472
2	0	0	0	0	505
3	0	0	0	0	542
4	0	0	0	0	482
5	0	0	0	0	511
6	0	0	0	0	526
7	0	0	0	0	503
8	0	0	0	0	504
9	0	0	0	0	483
10	0	0	0	0	516
11	0	0	0	0	563
12	0	0	0	0	536
13	0	0	0	0	488
14	0	0	0	0	543
15	0	0	0	0	495
0	0	0	0	0	527
1	0	0	0	0	521
2	0	0	0	0	602
3	0	0	0	0	461
4	0	0	0	0	540
5	0	0	0	0	474
6	0	0	0	0	529
7	0	0	0	0	495
8	0	0	0	0	588
9	0	0	0	0	500
10	0	0	0	0	506
11	0	0	0	0	611
12	0	0	0	0	516
13	0	0	0	0	480
14	0	0	0	0	543
15	0	0	0	0	476
0	0	0	0	0	513
1	0	0	0	0	531
2	0	0	0	0	522
3	0	0	0	0	518
4	0	0	0	0	540
5	0	0	0	0	528
6	0	0	0	0	531
7	0	0	0	0	467
8	0	0	0	0	544
9	0	0	0	0	505
10	0	0	0	0	519
11	0	0	0	0	486
12	0	0	0	0	551
13	0	0	0	0	481
14	0	0	0	0	546
15	0	0	0	0	452
0	0	0	0	0	600
1	0	0	0	0	455
2	0	0	0	0	521
3	0	0	0	0	490
4	0	0	0	0	543
5	0	0	0	0	497
6	0	0	0	0	563
7	0	0	0	0	474
8	0	0	0	0	540
9	0	0	0	0	494
10	0	0	0	0	542
11	0	0	0	0	481
12	0	0	0	0	538
13	0	0	0	0	507
14	0	0	0	0	527
15	0	0	0	0	485
0	0	0	0	0	537
1	0	0	0	0	495
2	0	0	0	0	536
3	0	0	0	0	491
4	0	0	0	0	533
5	0	0	0	0	491
6	0	0	0	0	542
7	0	0	0	0	491
8	0	0	0	0	534
9	0	0	0	0	488
10	0	0	0	0	533
11	0	0	0	0	491
12	0	0	0	0	536
13	0	0	0	0	487
14	0	0	0	0	546
15	0	0	0	0	492
0	0	0	0	0	531
1	0	0	0	0	500
2	0	0	0	0	540
3	0	0	0	0	496
4	0	0	0	0	550
5	0	0	0	0	489
6	0	0	0	0	529
7	0	0	0	0	477
8	0	0	0	0	524
9	0	0	0	0	493
10	0	0	0	0	551
11	0	0	0	0	493
12	0	0	0	0	534
13	0	0	0	0	583
14	0	0	0	0	531
15	0	0	0	0	463
0	0	0	0	0	532
1	0	0	0	0	493
2	0	0	0	0	538
3	0	0	0	0	501
4	0	0	0	0	526
5	0	0	0	0	491
6	0	0	0	0	524
7	0	0	0	0	485
8	0	0	0	0	537
9	0	0	0	0	494
10	0	0	0	0	537
11	0	0	0	0	492
12	0	0	0	0	530
13	0	0	0	0	463
14	0	0	0	0	534
15	0	0	0	0	464
0	0	0	0	0	543
1	0	0	0	0	489
2	0	0	0	0	587
3	0	0	0	0	483
4	0	0	0	0	534
5	0	0	0	0	489
6	0	0	0	0	544
7	0	0	0	0	496
8	0	0	0	0	531
9	0	0	0	0	492
10	0	0	0	0	539
11	0	0	0	0	489
12	0	0	0	0	530
13	0	0	0	0	491
14	0	0	0	0	525
15	0	0	0	0	492
0	0	0	0	0	531
1	0	0	0	0	468
2	0	0	0	0	536
3	0	0	0	0	484
4	0	0	0	0	532
5	0	0	0	0	492
6	0	0	0	0	536
7	0	0	0	0	491
8	0	0	0	0	523
9	0	0	0	0	484
10	0	0	0	0	509
11	0	0	0	0	480
12	0	0	0	0	532
13	0	0	0	0	499
14	0	0	0	0	532
15	0	0	0	0	484
0	0	0	0	0	540
1	0	0	0	0	492
2	0	0	0	0	527
3	0	0	0	0	498
4	0	0	0	0	542
5	0	0	0	0	509
6	0	0	0	0	542
7	0	0	0	0	489
8	0	0	0	0	523
9	0	0	0	0	487
10	0	0	0	0	525
11	0	0	0	0	485
12	0	0	0	0	519
13	0	0	0	0	505
14	0	0	0	0	545
15	0	0	0	0	479
0	0	0	0	0	529
1	0	0	0	0	480
2	0	0	0	0	541
3	0	0	0	0	485
4	0	0	0	0	533
5	0	0	0	0	487
6	0	0	0	0	509
7	0	0	0	0	489
8	0	0	0	0	552
9	0	0	0	0	507
10	0	0	0	0	541
11	0	0	0	0	494
12	0	0	0	0	538
13	0	0	0	0	496
14	0	0	0	0	541
15	0	0	0	0	464
0	0	0	0	0	535
1	0	0	0	0	487
2	0	0	0	0	541
3	0	0	0	0	473
4	0	0	0	0	572
5	0	0	0	0	484
6	0	0	0	0	540
7	0	0	0	0	485
8	0	0	0	0	534
9	0	0	0	0	545
10	0	0	0	0	536
11	0	0	0	0	472
12	0	0	0	0	552
13	0	0	0	0	483
14	0	0	0	0	540
15	0	0	0	0	490
0	0	0	0	0	538
1	0	0	0	0	480
2	0	0	0	0	540
3	0	0	0	0	486
4	0	0	0	0	534
5	0	0	0	0	470
6	0	0	0	0	543
7	0	0	0	0	480
8	0	0	0	0	546
9	0	0	0	0	490
10	0	0	0	0	543
11	0	0	0	0	472
12	0	0	0	0	532
13	0	0	0	0	474
14	0	0	0	0	556
15	0	0	0	0	467
0	0	0	0	0	542
1	0	0	0	0	483
2	0	0	0	0	547
3	0	0	0	0	482
4	0	0	0	0	539
5	0	0	0	0	471
6	0	0	0	0	532
7	0	0	0	0	472
8	0	0	0	0	543
9	0	0	0	0	464
10	0	0	0	0	560
11	0	0	0	0	476
12	0	0	0	0	544
13	0	0	0	0	466
14	0	0	0	0	537
15	0	0	0	0	517
0	0	0	0	0	534
1	0	0	0	0	499
2	0	0	0	0	603
3	0	0	0	0	480
4	0	0	0	0	540
5	0	0	0	0	486
6	0	0	0	0	543
7	0	0	0	0	481
8	0	0	0	0	529
9	0	0	0	0	522
10	0	0	0	0	524
11	0	0	0	0	495
12	0	0	0	0	539
13	0	0	0	0	477
14	0	0	0	0	542
15	0	0	0	0	497
0	0	0	0	0	535
1	0	0	0	0	480
2	0	0	0	0	542
3	0	0	0	0	513
4	0	0	0	0	547
5	0	0	0	0	478
6	0	0	0	0	543
7	0	0	0	0	480
8	0	0	0	0	536
9	0	0	0	0	479
10	0	0	0	0	539
11	0	0	0	0	482
12	0	0	0	0	552
13	0	0	0	0	477
14	0	0	0	0	530
15	0	0	0	0	488
0	0	0	0	0	519
1	0	0	0	0	514
2	0	0	0	0	534
3	0	0	0	0	534
4	0	0	0	0	559
5	0	0	0	0	6
6	0	0	0	0	1021
7	0	0	0	0	0
8	0	0	0	0	729
9	0	0	0	0	63
10	0	0	0	0	588
11	0	0	0	0	389
12	0	0	0	0	403
13	0	0	0	0	817
14	0	0	0	0	221
15	0	0	0	0	414
0	0	0	0	0	428
1	0	0	0	0	952
2	0	0	0	0	545
3	0	0	0	0	504
4	0	0	0	0	490
5	0	0	0	0	341
6	0	0	0	0	1022
7	0	0	0	0	96
8	0	0	0	0	746
9	0	0	0	0	0
10	0	0	0	0	1022
11	0	0	0	0	227
12	0	0	0	0	504
13	0	0	0	0	292
14	0	0	0	0	257
15	0	0	0	0	257
0	0	0	0	0	825
1	0	0	0	0	0
2	0	0	0	0	1003
3	0	0	0	0	211
4	0	0	0	0	52
5	0	0	0	0	399
6	0	0	0	0	719
7	0	0	0	0	394
8	0	0	0	0	668
9	0	0	0	0	615
10	0	0	0	0	844
11	0	0	0	0	646
12	0	0	0	0	103
13	0	0	0	0	409
14	0	0	0	0	646
15	0	0	0	0	208
0	0	0	0	0	548
1	0	0	0	0	615
2	0	0	0	0	0
3	0	0	0	0	274
4	0	0	0	0	945
5	0	0	0	0	523
6	0	0	0	0	1022
7	0	0	0	0	425
8	0	0	0	0	628
9	0	0	0	0	797
10	0	0	0	0	500
11	0	0	0	0	305
12	0	0	0	0	644
13	0	0	0	0	36
14	0	0	0	0	1004
15	0	0	0	0	105
0	0	0	0	0	1022
1	0	0	0	0	715
2	0	0	0	0	292
3	0	0	0	0	1022
4	0	0	0	0	407
5	0	0	0	0	525
6	0	0	0	0	726
7	0	0	0	0	621
8	0	0	0	0	180
9	0	0	0	0	949
10	0	0	0	0	521
11	0	0	0	0	337
12	0	0	0	0	189
13	0	0	0	0	601
14	0	0	0	0	541
15	0	0	0	0	568
0	0	0	0	0	411
1	0	0	0	0	800
2	0	0	0	0	589
3	0	0	0	0	459
4	0	0	0	0	283
5	0	0	0	0	667
6	0	0	0	0	426
7	0	0	0	0	519
8	0	0	0	0	493
9	0	0	0	0	622
10	0	0	0	0	403
11	0	0	0	0	500
12	0	0	0	0	484
13	0	0	0	0	511
14	0	0	0	0	503
15	0	0	0	0	599
0	0	0	0	0	570
1	0	0	0	0	567
2	0	0	0	0	515
3	0	0	0	0	471
4	0	0	0	0	516
5	0	0	0	0	529
6	0	0	0	0	493
7	0	0	0	0	487
8	0	0	0	0	512
9	0	0	0	0	533
10	0	0	0	0	473
11	0	0	0	0	483
12	0	0	0	0	474
13	0	0	0	0	496
14	0	0	0	0	504
15	0	0	0	0	651
0	0	0	0	0	496
1	0	0	0	0	502
2	0	0	0	0	502
3	0	0	0	0	505
4	0	0	0	0	512
5	0	0	0	0	509
6	0	0	0	0	518
7	0	0	0	0	497
8	0	0	0	0	504
9	0	0	0	0	443
10	0	0	0	0	525
11	0	0	0	0	515
12	0	0	0	0	536
13	0	0	0	0	514
14	0	0	0	0	537
15	0	0	0	0	481
0	0	0	0	0	535
1	0	0	0	0	495
2	0	0	0	0	496
3	0	0	0	0	556
4	0	0	0	0	536
5	0	0	0	0	484
6	0	0	0	0	507
7	0	0	0	0	532
8	0	0	0	0	532
9	0	0	0	0	481
10	0	0	0	0	579
11	0	0	0	0	452
12	0	0	0	0	530
13	0	0	0	0	496
14	0	0	0	0	509
15	0	0	0	0	516
0	0	0	0	0	511
1	0	0	0	0	493
2	0	0	0	0	533
3	0	0	0	0	490
4	0	0	0	0	530
5	0	0	0	0	480
6	0	0	0	0	547
7	0	0	0	0	484
8	0	0	0	0	522
9	0	0	0	0	524
10	0	0	0	0	568
11	0	0	0	0	492
12	0	0	0	0	541
13	0	0	0	0	476
14	0	0	0	0	527
15	0	0	0	0	509
0	0	0	0	0	519
1	0	0	0	0	487
2	0	0	0	0	521
3	0	0	0	0	483
4	0	0	0	0	549
5	0	0	0	0	451
6	0	0	0	0	531
7	0	0	0	0	467
8	0	0	0	0	517
9	0	0	0	0	502
10	0	0	0	0	505
11	0	0	0	0	507
12	0	0	0	0	501
13	0	0	0	0	503
14	0	0	0	0	594
15	0	0	0	0	465
0	0	0	0	0	543
1	0	0	0	0	505
2	0	0	0	0	526
3	0	0	0	0	488
4	0	0	0	0	540
5	0	0	0	0	506
6	0	0	0	0	539
7	0	0	0	0	445
8	0	0	0	0	608
9	0	0	0	0	462
10	0	0	0	0	530
11	0	0	0	0	488
12	0	0	0	0	528
13	0	0	0	0	497
14	0	0	0	0	543
15	0	0	0	0	481
0	0	0	0	0	577
1	0	0	0	0	489
2	0	0	0	0	523
3	0	0	0	0	484
4	0	0	0	0	543
5	0	0	0	0	493
6	0	0	0	0	534
7	0	0	0	0	497
8	0	0	0	0	515
9	0	0	0	0	499
10	0	0	0	0	539
11	0	0	0	0	503
12	0	0	0	0	513
13	0	0	0	0	558
14	0	0	0	0	521
15	0	0	0	0	478
0	0	0	0	0	538
1	0	0	0	0	483
2	0	0	0	0	543
3	0	0	0	0	536
4	0	0	0	0	541
5	0	0	0	0	480
6	0	0	0	0	524
7	0	0	0	0	523
8	0	0	0	0	519
9	0	0	0	0	509
10	0	0	0	0	511
11	0	0	0	0	478
12	0	0	0	0	545
13	0	0	0	0	486
14	0	0	0	0	539
15	0	0	0	0	519
0	0	0	0	0	530
1	0	0	0	0	492
2	0	0	0	0	546
3	0	0	0	0	482
4	0	0	0	0	531
5	0	0	0	0	489
6	0	0	0	0	544
7	0	0	0	0	466
8	0	0	0	0	546
9	0	0	0	0	494
10	0	0	0	0	545
11	0	0	0	0	491
12	0	0	0	0	543
13	0	0	0	0	496
14	0	0	0	0	531
15	0	0	0	0	481
0	0	0	0	0	540
1	0	0	0	0	503
2	0	0	0	0	580
3	0	0	0	0	503
4	0	0	0	0	545
5	0	0	0	0	451
6	0	0	0	0	546
7	0	0	0	0	491
8	0	0	0	0	634
9	0	0	0	0	454
10	0	0	0	0	533
11	0	0	0	0	484
12	0	0	0	0	527
13	0	0	0	0	481
14	0	0	0	0	525
15	0	0	0	0	468
0	0	0	0	0	527
1	0	0	0	0	486
2	0	0	0	0	542
3	0	0	0	0	481
4	0	0	0	0	542
5	0	0	0	0	472
6	0	0	0	0	513
7	0	0	0	0	465
8	0	0	0	0	522
9	0	0	0	0	484
10	0	0	0	0	544
11	0	0	0	0	490
12	0	0	0	0	512
13	0	0	0	0	473
14	0	0	0	0	472
15	0	0	0	0	505
0	0	0	0	0	528
1	0	0	0	0	467
2	0	0	0	0	533
3	0	0	0	0	487
4	0	0	0	0	543
5	0	0	0	0	558
6	0	0	0	0	559
7	0	0	0	0	515
8	0	0	0	0	499
9	0	0	0	0	468
10	0	0	0	0	529
11	0	0	0	0	497
12	0	0	0	0	556
13	0	0	0	0	487
14	0	0	0	0	642
15	0	0	0	0	509
0	0	0	0	0	541
1	0	0	0	0	478
2	0	0	0	0	551
3	0	0	0	0	483
4	0	0	0	0	543
5	0	0	0	0	539
6	0	0	0	0	536
7	0	0	0	0	537
8	0	0	0	0	529
9	0	0	0	0	479
10	0	0	0	0	533
11	0	0	0	0	483
12	0	0	0	0	511
13	0	0	0	0	498
14	0	0	0	0	524
15	0	0	0	0	471
0	0	0	0	0	575
1	0	0	0	0	444
2	0	0	0	0	532
3	0	0	0	0	460
4	0	0	0	0	501
5	0	0	0	0	482
6	0	0	0	0	544
7	0	0	0	0	457
8	0	0	0	0	516
9	0	0	0	0	463
10	0	0	0	0	545
11	0	0	0	0	513
12	0	0	0	0	503
13	0	0	0	0	487
14	0	0	0	0	517
15	0	0	0	0	501
0	0	0	0	0	529
1	0	0	0	0	479
2	0	0	0	0	545
3	0	0	0	0	493
4	0	0	0	0	523
5	0	0	0	0	473
6	0	0	0	0	519
7	0	0	0	0	492
8	0	0	0	0	567
9	0	0	0	0	462
10	0	0	0	0	526
11	0	0	0	0	455
12	0	0	0	0	529
13	0	0	0	0	596
14	0	0	0	0	529
15	0	0	0	0	483
0	0	0	0	0	568
1	0	0	0	0	472
2	0	0	0	0	583
3	0	0	0	0	480
4	0	0	0	0	537
5	0	0	0	0	469
6	0	0	0	0	532
7	0	0	0	0	569
8	0	0	0	0	529
9	0	0	0	0	457
10	0	0	0	0	608
11	0	0	0	0	468
12	0	0	0	0	412
13	0	0	0	0	471
14	0	0	0	0	534
15	0	0	0	0	571
0	0	0	0	0	541
1	0	0	0	0	477
2	0	0	0	0	543
3	0	0	0	0	475
4	0	0	0	0	575
5	0	0	0	0	488
6	0	0	0	0	349
7	0	0	0	0	447
8	0	0	0	0	527
9	0	0	0	0	529
10	0	0	0	0	568
11	0	0	0	0	454
12	0	0	0	0	603
13	0	0	0	0	460
14	0	0	0	0	617
15	0	0	0	0	495
0	0	0	0	0	543
1	0	0	0	0	510
2	0	0	0	0	657
3	0	0	0	0	439
4	0	0	0	0	541
5	0	0	0	0	587
6	0	0	0	0	526
7	0	0	0	0	480
8	0	0	0	0	568
9	0	0	0	0	459
10	0	0	0	0	535
11	0	0	0	0	438
12	0	0	0	0	719
13	0	0	0	0	442
14	0	0	0	0	656
15	0	0	0	0	406
0	0	0	0	0	478
1	0	0	0	0	438
2	0	0	0	0	553
3	0	0	0	0	457
4	0	0	0	0	862
5	0	0	0	0	321
6	0	0	0	0	129
7	0	0	0	0	789
8	0	0	0	0	413
9	0	0	0	0	569
10	0	0	0	0	200
11	0	0	0	0	733
12	0	0	0	0	882
13	0	0	0	0	268
14	0	0	0	0	1022
15	0	0	0	0	280
0	0	0	0	0	1022
1	0	0	0	0	145
2	0	0	0	0	775
3	0	0	0	0	718
4	0	0	0	0	0
5	0	0	0	0	1022
6	0	0	0	0	0
7	0	0	0	0	1022
8	0	0	0	0	322
9	0	0	0	0	899
10	0	0	0	0	155
11	0	0	0	0	751
12	0	0	0	0	11
13	0	0	0	0	1012
14	0	0	0	0	0
15	0	0	0	0	1022
0	0	0	0	0	506
1	0	0	0	0	554
2	0	0	0	0	517
3	0	0	0	0	0
4	0	0	0	0	459
5	0	0	0	0	659
6	0	0	0	0	563
7	0	0	0	0	1022
8	0	0	0	0	174
9	0	0	0	0	1021
10	0	0	0	0	0
11	0	0	0	0	0
12	0	0	0	0	846
13	0	0	0	0	233
14	0	0	0	0	428
15	0	0	0	0	747
0	0	0	0	0	155
1	0	0	0	0	1022
2	0	0	0	0	920
3	0	0	0	0	671
4	0	0	0	0	1022
5	0	0	0	0	0
6	0	0	0	0	161
7	0	0	0	0	1022
8	0	0	0	0	1022
9	0	0	0	0	0
10	0	0	0	0	205
11	0	0	0	0	500
12	0	0	0	0	240
13	0	0	0	0	705
14	0	0	0	0	1022
15	0	0	0	0	0
0	0	0	0	0	315
1	0	0	0	0	365
2	0	0	0	0	0
3	0	0	0	0	671
4	0	0	0	0	357
5	0	0	0	0	785
6	0	0	0	0	129
7	0	0	0	0	497
8	0	0	0	0	595
9	0	0	0	0	1022
10	0	0	0	0	405
11	0	0	0	0	543
12	0	0	0	0	531
13	0	0	0	0	555
14	0	0	0	0	1022
15	0	0	0	0	133
0	0	0	0	0	600
1	0	0	0	0	678
2	0	0	0	0	395
3	0	0	0	0	642
4	0	0	0	0	384
5	0	0	0	0	253
6	0	0	0	0	276
7	0	0	0	0	491
8	0	0	0	0	469
9	0	0	0	0	383
10	0	0	0	0	653
11	0	0	0	0	224
12	0	0	0	0	873
13	0	0	0	0	500
14	0	0	0	0	375
15	0	0	0	0	676
0	0	0	0	0	626
1	0	0	0	0	517
2	0	0	0	0	545
3	0	0	0	0	665
4	0	0	0	0	529
5	0	0	0	0	426
6	0	0	0	0	561
7	0	0	0	0	496
8	0	0	0	0	478
9	0	0	0	0	556
10	0	0	0	0	524
11	0	0	0	0	498
12	0	0	0	0	566
13	0	0	0	0	471
14	0	0	0	0	546
15	0	0	0	0	515
0	0	0	0	0	506
1	0	0	0	0	496
2	0	0	0	0	536
3	0	0	0	0	505
4	0	0	0	0	596
5	0	0	0	0	529
6	0	0	0	0	511
7	0	0	0	0	488
8	0	0	0	0	492
9	0	0	0	0	498
10	0	0	0	0	516
11	0	0	0	0	474
12	0	0	0	0	587
13	0	0	0	0	504
14	0	0	0	0	510
15	0	0	0	0	539
0	0	0	0	0	526
1	0	0	0	0	506
2	0	0	0	0	536
3	0	0	0	0	524
4	0	0	0	0	536
5	0	0	0	0	485
6	0	0	0	0	517
7	0	0	0	0	481
8	0	0	0	0	535
9	0	0	0	0	520
10	0	0	0	0	487
11	0	0	0	0	534
12	0	0	0	0	517
13	0	0	0	0	515
14	0	0	0	0	531
15	0	0	0	0	484
0	0	0	0	0	524
1	0	0	0	0	502
2	0	0	0	0	475
3	0	0	0	0	539
4	0	0	0	0	489
5	0	0	0	0	524
6	0	0	0	0	528
7	0	0	0	0	496
8	0	0	0	0	502
9	0	0	0	0	560
10	0	0	0	0	511
11	0	0	0	0	438
12	0	0	0	0	535
13	0	0	0	0	496
14	0	0	0	0	526
15	0	0	0	0	471
0	0	0	0	0	544
1	0	0	0	0	532
2	0	0	0	0	530
3	0	0	0	0	470
4	0	0	0	0	523
5	0	0	0	0	531
6	0	0	0	0	526
7	0	0	0	0	537
8	0	0	0	0	522
9	0	0	0	0	483
10	0	0	0	0	533
11	0	0	0	0	505
12	0	0	0	0	512
13	0	0	0	0	527
14	0	0	0	0	499
15	0	0	0	0	507
0	0	0	0	0	519
1	0	0	0	0	486
2	0	0	0	0	555
3	0	0	0	0	496
4	0	0	0	0	489
5	0	0	0	0	504
6	0	0	0	0	587
7	0	0	0	0	482
8	0	0	0	0	527
9	0	0	0	0	497
10	0	0	0	0	556
11	0	0	0	0	512
12	0	0	0	0	510
13	0	0	0	0	557
14	0	0	0	0	501
15	0	0	0	0	486
0	0	0	0	0	534
1	0	0	0	0	489
2	0	0	0	0	515
3	0	0	0	0	500
4	0	0	0	0	527
5	0	0	0	0	507
6	0	0	0	0	538
7	0	0	0	0	493
8	0	0	0	0	524
9	0	0	0	0	477
10	0	0	0	0	515
11	0	0	0	0	515
12	0	0	0	0	536
13	0	0	0	0	454
14	0	0	0	0	560
15	0	0	0	0	506
0	0	0	0	0	522
1	0	0	0	0	496
2	0	0	0	0	536
3	0	0	0	0	519
4	0	0	0	0	518
5	0	0	0	0	476
6	0	0	0	0	558
7	0	0	0	0	492
8	0	0	0	0	534
9	0	0	0	0	494
10	0	0	0	0	539
11	0	0	0	0	477
12	0	0	0	0	564
13	0	0	0	0	495
14	0	0	0	0	533
15	0	0	0	0	495
0	0	0	0	0	518
1	0	0	0	0	504
2	0	0	0	0	526
3	0	0	0	0	484
4	0	0	0	0	525
5	0	0	0	0	472
6	0	0	0	0	570
7	0	0	0	0	459
8	0	0	0	0	543
9	0	0	0	0	475
10	0	0	0	0	545
11	0	0	0	0	473
12	0	0	0	0	511
13	0	0	0	0	493
14	0	0	0	0	546
15	0	0	0	0	457
0	0	0	0	0	529
1	0	0	0	0	479
2	0	0	0	0	545
3	0	0	0	0	499
4	0	0	0	0	540
5	0	0	0	0	468
6	0	0	0	0	523
7	0	0	0	0	483
8	0	0	0	0	532
9	0	0	0	0	497
10	0	0	0	0	547
11	0	0	0	0	494
12	0	0	0	0	544
13	0	0	0	0	481
14	0	0	0	0	508
15	0	0	0	0	510
0	0	0	0	0	512
1	0	0	0	0	485
2	0	0	0	0	527
3	0	0	0	0	513
4	0	0	0	0	532
5	0	0	0	0	481
6	0	0	0	0	546
7	0	0	0	0	483
8	0	0	0	0	541
9	0	0	0	0	459
10	0	0	0	0	536
11	0	0	0	0	471
12	0	0	0	0	538
13	0	0	0	0	478
14	0	0	0	0	539
15	0	0	0	0	478
0	0	0	0	0	538
1	0	0	0	0	476
2	0	0	0	0	531
3	0	0	0	0	473
4	0	0	0	0	559
5	0	0	0	0	489
6	0	0	0	0	540
7	0	0	0	0	451
8	0	0	0	0	529
9	0	0	0	0	484
10	0	0	0	0	553
11	0	0	0	0	482
12	0	0	0	0	543
13	0	0	0	0	481
14	0	0	0	0	580
15	0	0	0	0	478
0	0	0	0	0	530
1	0	0	0	0	487
2	0	0	0	0	530
3	0	0	0	0	480
4	0	0	0	0	527
5	0	0	0	0	465
6	0	0	0	0	557
7	0	0	0	0	495
8	0	0	0	0	515
9	0	0	0	0	485
10	0	0	0	0	502
11	0	0	0	0	486
12	0	0	0	0	546
13	0	0	0	0	468
14	0	0	0	0	605
15	0	0	0	0	481
0	0	0	0	0	570
1	0	0	0	0	523
2	0	0	0	0	540
3	0	0	0	0	493
4	0	0	0	0	554
5	0	0	0	0	466
6	0	0	0	0	526
7	0	0	0	0	468
8	0	0	0	0	532
9	0	0	0	0	502
10	0	0	0	0	542
11	0	0	0	0	481
12	0	0	0	0	546
13	0	0	0	0	483
14	0	0	0	0	641
15	0	0	0	0	475
0	0	0	0	0	504
1	0	0	0	0	474
2	0	0	0	0	523
3	0	0	0	0	481
4	0	0	0	0	554
5	0	0	0	0	476
6	0	0	0	0	537
7	0	0	0	0	460
8	0	0	0	0	579
9	0	0	0	0	489
10	0	0	0	0	551
11	0	0	0	0	503
12	0	0	0	0	536
13	0	0	0	0	477
14	0	0	0	0	528
15	0	0	0	0	531
0	0	0	0	0	550
1	0	0	0	0	479
2	0	0	0	0	540
3	0	0	0	0	479
4	0	0	0	0	582
5	0	0	0	0	476
6	0	0	0	0	537
7	0	0	0	0	512
8	0	0	0	0	553
9	0	0	0	0	485
10	0	0	0	0	533
11	0	0	0	0	483
12	0	0	0	0	498
13	0	0	0	0	466
14	0	0	0	0	574
15	0	0	0	0	476
0	0	0	0	0	550
1	0	0	0	0	492
2	0	0	0	0	551
3	0	0	0	0	495
4	0	0	0	0	501
5	0	0	0	0	487
6	0	0	0	0	531
7	0	0	0	0	507
8	0	0	0	0	523
9	0	0	0	0	424
10	0	0	0	0	530
11	0	0	0	0	481
12	0	0	0	0	574
13	0	0	0	0	494
14	0	0	0	0	568
15	0	0	0	0	483
0	0	0	0	0	521
1	0	0	0	0	474
2	0	0	0	0	539
3	0	0	0	0	478
4	0	0	0	0	575
5	0	0	0	0	483
6	0	0	0	0	531
7	0	0	0	0	449
8	0	0	0	0	518
9	0	0	0	0	475
10	0	0	0	0	538
11	0	0	0	0	477
12	0	0	0	0	534
13	0	0	0	0	481
14	0	0	0	0	603
15	0	0	0	0	466
0	0	0	0	0	540
1	0	0	0	0	485
2	0	0	0	0	543
3	0	0	0	0	485
4	0	0	0	0	536
5	0	0	0	0	475
6	0	0	0	0	539
7	0	0	0	0	484
8	0	0	0	0	544
9	0	0	0	0	486
10	0	0	0	0	540
11	0	0	0	0	496
12	0	0	0	0	539
13	0	0	0	0	436
14	0	0	0	0	628
15	0	0	0	0	439
0	0	0	0	0	563
1	0	0	0	0	533
2	0	0	0	0	574
3	0	0	0	0	466
4	0	0	0	0	544
5	0	0	0	0	466
6	0	0	0	0	601
7	0	0	0	0	478
8	0	0	0	0	509
9	0	0	0	0	581
10	0	0	0	0	452
11	0	0	0	0	622
12	0	0	0	0	515
13	0	0	0	0	454
14	0	0	0	0	504
15	0	0	0	0	479
0	0	0	0	0	533
1	0	0	0	0	492
2	0	0	0	0	548
3	0	0	0	0	493
4	0	0	0	0	643
5	0	0	0	0	383
6	0	0	0	0	757
7	0	0	0	0	711
8	0	0	0	0	102
9	0	0	0	0	719
10	0	0	0	0	329
11	0	0	0	0	476
12	0	0	0	0	531
13	0	0	0	0	481
14	0	0	0	0	367
15	0	0	0	0	468
0	0	0	0	0	769
1	0	0	0	0	460
2	0	0	0	0	450
3	0	0	0	0	227
4	0	0	0	0	468
5	0	0	0	0	411
6	0	0	0	0	655
7	0	0	0	0	449
8	0	0	0	0	637
9	0	0	0	0	199
10	0	0	0	0	471
11	0	0	0	0	843
12	0	0	0	0	451
13	0	0	0	0	758
14	0	0	0	0	657
15	0	0	0	0	204
0	0	0	0	0	1022
1	0	0	0	0	309
2	0	0	0	0	336
3	0	0	0	0	489
4	0	0	0	0	623
5	0	0	0	0	222
6	0	0	0	0	777
7	0	0	0	0	371
8	0	0	0	0	279
9	0	0	0	0	430
10	0	0	0	0	0
11	0	0	0	0	619
12	0	0	0	0	295
13	0	0	0	0	283
14	0	0	0	0	917
15	0	0	0	0	217
0	0	0	0	0	475
1	0	0	0	0	305
2	0	0	0	0	463
3	0	0	0	0	287
4	0	0	0	0	509
5	0	0	0	0	697
6	0	0	0	0	656
7	0	0	0	0	821
8	0	0	0	0	387
9	0	0	0	0	636
10	0	0	0	0	209
11	0	0	0	0	595
12	0	0	0	0	334
13	0	0	0	0	513
14	0	0	0	0	692
15	0	0	0	0	262
0	0	0	0	0	557
1	0	0	0	0	744
2	0	0	0	0	491
3	0	0	0	0	662
4	0	0	0	0	767
5	0	0	0	0	453
6	0	0	0	0	548
7	0	0	0	0	315
8	0	0	0	0	923
9	0	0	0	0	398
10	0	0	0	0	582
11	0	0	0	0	938
12	0	0	0	0	425
13	0	0	0	0	948
14	0	0	0	0	131
15	0	0	0	0	1022
0	0	0	0	0	233
1	0	0	0	0	157
2	0	0	0	0	763
3	0	0	0	0	315
4	0	0	0	0	642
5	0	0	0	0	348
6	0	0	0	0	941
7	0	0	0	0	464
8	0	0	0	0	558
9	0	0	0	0	474
10	0	0	0	0	647
11	0	0	0	0	156
12	0	0	0	0	521
13	0	0	0	0	405
14	0	0	0	0	667
15	0	0	0	0	462
0	0	0	0	0	802
1	0	0	0	0	333
2	0	0	0	0	502
3	0	0	0	0	672
4	0	0	0	0	482
5	0	0	0	0	669
6	0	0	0	0	230
7	0	0	0	0	831
8	0	0	0	0	364
9	0	0	0	0	408
10	0	0	0	0	507
11	0	0	0	0	776
12	0	0	0	0	399
13	0	0	0	0	630
14	0	0	0	0	435
15	0	0	0	0	506
0	0	0	0	0	645
1	0	0	0	0	487
2	0	0	0	0	557
3	0	0	0	0	463
4	0	0	0	0	518
5	0	0	0	0	591
6	0	0	0	0	520
7	0	0	0	0	515
8	0	0	0	0	486
9	0	0	0	0	573
10	0	0	0	0	487
11	0	0	0	0	446
12	0	0	0	0	497
13	0	0	0	0	578
14	0	0	0	0	531
15	0	0	0	0	484
0	0	0	0	0	555
1	0	0	0	0	483
2	0	0	0	0	615
3	0	0	0	0	482
4	0	0	0	0	524
5	0	0	0	0	496
6	0	0	0	0	540
7	0	0	0	0	496
8	0	0	0	0	543
9	0	0	0	0	476
10	0	0	0	0	529
11	0	0	0	0	490
12	0	0	0	0	528
13	0	0	0	0	492
14	0	0	0	0	561
15	0	0	0	0	560
0	0	0	0	0	510
1	0	0	0	0	490
2	0	0	0	0	518
3	0	0	0	0	495
4	0	0	0	0	555
5	0	0	0	0	481
6	0	0	0	0	527
7	0	0	0	0	515
8	0	0	0	0	513
9	0	0	0	0	487
10	0	0	0	0	583
11	0	0	0	0	493
12	0	0	0	0	551
13	0	0	0	0	486
14	0	0	0	0	591
15	0	0	0	0	521
0	0	0	0	0	524
1	0	0	0	0	516
2	0	0	0	0	543
3	0	0	0	0	493
4	0	0	0	0	537
5	0	0	0	0	499
6	0	0	0	0	543
7	0	0	0	0	444
8	0	0	0	0	521
9	0	0	0	0	493
10	0	0	0	0	542
11	0	0	0	0	482
12	0	0	0	0	539
13	0	0	0	0	497
14	0	0	0	0	523
15	0	0	0	0	487
0	0	0	0	0	600
1	0	0	0	0	429
2	0	0	0	0	505
3	0	0	0	0	492
4	0	0	0	0	545
5	0	0	0	0	488
6	0	0	0	0	542
7	0	0	0	0	510
8	0	0	0	0	627
9	0	0	0	0	463
10	0	0	0	0	542
11	0	0	0	0	476
12	0	0	0	0	548
13	0	0	0	0	480
14	0	0	0	0	531
15	0	0	0	0	516
0	0	0	0	0	527
1	0	0	0	0	447
2	0	0	0	0	523
3	0	0	0	0	477
4	0	0	0	0	535
5	0	0	0	0	483
6	0	0	0	0	525
7	0	0	0	0	486
8	0	0	0	0	529
9	0	0	0	0	438
10	0	0	0	0	570
11	0	0	0	0	465
12	0	0	0	0	528
13	0	0	0	0	502
14	0	0	0	0	548
15	0	0	0	0	493
0	0	0	0	0	533
1	0	0	0	0	512
2	0	0	0	0	635
3	0	0	0	0	487
4	0	0	0	0	537
5	0	0	0	0	476
6	0	0	0	0	541
7	0	0	0	0	480
8	0	0	0	0	515
9	0	0	0	0	405
10	0	0	0	0	472
11	0	0	0	0	472
12	0	0	0	0	530
13	0	0	0	0	475
14	0	0	0	0	547
15	0	0	0	0	488
0	0	0	0	0	548
1	0	0	0	0	497
2	0	0	0	0	643
3	0	0	0	0	477
4	0	0	0	0	581
5	0	0	0	0	473
6	0	0	0	0	546
7	0	0	0	0	619
8	0	0	0	0	537
9	0	0	0	0	447
10	0	0	0	0	518
11	0	0	0	0	549
12	0	0	0	0	480
13	0	0	0	0	486
14	0	0	0	0	549
15	0	0	0	0	486
0	0	0	0	0	542
1	0	0	0	0	480
2	0	0	0	0	476
3	0	0	0	0	409
4	0	0	0	0	502
5	0	0	0	0	480
6	0	0	0	0	541
7	0	0	0	0	479
8	0	0	0	0	547
9	0	0	0	0	499
10	0	0	0	0	528
11	0	0	0	0	572
12	0	0	0	0	530
13	0	0	0	0	446
14	0	0	0	0	765
15	0	0	0	0	378
0	0	0	0	0	586
1	0	0	0	0	325
2	0	0	0	0	496
3	0	0	0	0	665
4	0	0	0	0	766
5	0	0	0	0	406
6	0	0	0	0	510
7	0	0	0	0	372
8	0	0	0	0	686
9	0	0	0	0	748
10	0	0	0	0	202
11	0	0	0	0	934
12	0	0	0	0	420
13	0	0	0	0	423
14	0	0	0	0	840
15	0	0	0	0	65
0	0	0	0	0	1022
1	0	0	0	0	59
2	0	0	0	0	608
3	0	0	0	0	423
4	0	0	0	0	729
5	0	0	0	0	259
6	0	0	0	0	559
7	0	0	0	0	886
8	0	0	0	0	1022
9	0	0	0	0	1022
10	0	0	0	0	210
11	0	0	0	0	766
12	0	0	0	0	0
13	0	0	0	0	242
14	0	0	0	0	484
15	0	0	0	0	844
0	0	0	0	0	322
1	0	0	0	0	471
2	0	0	0	0	0
3	0	0	0	0	254
4	0	0	0	0	211
5	0	0	0	0	1022
6	0	0	0	0	737
7	0	0	0	0	461
8	0	0	0	0	198
9	0	0	0	0	936
10	0	0	0	0	0
11	0	0	0	0	696
12	0	0	0	0	200
13	0	0	0	0	787
14	0	0	0	0	215
15	0	0	0	0	945
0	0	0	0	0	371
1	0	0	0	0	1022
2	0	0	0	0	607
3	0	0	0	0	1022
4	0	0	0	0	171
5	0	0	0	0	524
6	0	0	0	0	101
7	0	0	0	0	511
8	0	0	0	0	595
9	0	0	0	0	89
10	0	0	0	0	933
11	0	0	0	0	0
12	0	0	0	0	566
13	0	0	0	0	52
14	0	0	0	0	278
15	0	0	0	0	1003
0	0	0	0	0	0
1	0	0	0	0	253
2	0	0	0	0	443
3	0	0	0	0	401
4	0	0	0	0	652
5	0	0	0	0	684
6	0	0	0	0	314
7	0	0	0	0	56
8	0	0	0	0	0
9	0	0	0	0	558
10	0	0	0	0	167
11	0	0	0	0	96
12	0	0	0	0	220
13	0	0	0	0	274
14	0	0	0	0	495
15	0	0	0	0	641
0	0	0	0	0	1018
1	0	0	0	0	426
2	0	0	0	0	816
3	0	0	0	0	407
4	0	0	0	0	93
5	0	0	0	0	1022
6	0	0	0	0	397
7	0	0	0	0	473
8	0	0	0	0	481
9	0	0	0	0	670
10	0	0	0	0	451
11	0	0	0	0	521
12	0	0	0	0	537
13	0	0	0	0	519
14	0	0	0	0	442
15	0	0	0	0	534
0	0	0	0	0	622
1	0	0	0	0	474
2	0	0	0	0	524
3	0	0	0	0	502
4	0	0	0	0	542
5	0	0	0	0	524
6	0	0	0	0	534
7	0	0	0	0	500
8	0	0	0	0	493
9	0	0	0	0	510
10	0	0	0	0	494
11	0	0	0	0	488
12	0	0	0	0	534
13	0	0	0	0	499
14	0	0	0	0	556
15	0	0	0	0	637
0	0	0	0	0	466
1	0	0	0	0	574
2	0	0	0	0	568
3	0	0	0	0	490
4	0	0	0	0	488
5	0	0	0	0	553
6	0	0	0	0	513
7	0	0	0	0	468
8	0	0	0	0	557
9	0	0	0	0	485
10	0	0	0	0	512
11	0	0	0	0	518
12	0	0	0	0	527
13	0	0	0	0	476
14	0	0	0	0	519
15	0	0	0	0	462
0	0	0	0	0	531
1	0	0	0	0	506
2	0	0	0	0	517
3	0	0	0	0	489
4	0	0	0	0	531
5	0	0	0	0	479
6	0	0	0	0	568
7	0	0	0	0	454
8	0	0	0	0	526
9	0	0	0	0	480
10	0	0	0	0	508
11	0	0	0	0	512
12	0	0	0	0	466
13	0	0	0	0	527
14	0	0	0	0	520
15	0	0	0	0	496
0	0	0	0	0	512
1	0	0	0	0	492
2	0	0	0	0	490
3	0	0	0	0	564
4	0	0	0	0	505
5	0	0	0	0	478
6	0	0	0	0	551
7	0	0	0	0	491
8	0	0	0	0	515
9	0	0	0	0	497
10	0	0	0	0	527
11	0	0	0	0	506
12	0	0	0	0	580
13	0	0	0	0	460
14	0	0	0	0	556
15	0	0	0	0	499
0	0	0	0	0	539
1	0	0	0	0	495
2	0	0	0	0	522
3	0	0	0	0	515
4	0	0	0	0	480
5	0	0	0	0	569
6	0	0	0	0	486
7	0	0	0	0	469
8	0	0	0	0	516
9	0	0	0	0	502
10	0	0	0	0	523
11	0	0	0	0	504
12	0	0	0	0	528
13	0	0	0	0	495
14	0	0	0	0	542
15	0	0	0	0	503
0	0	0	0	0	500
1	0	0	0	0	498
2	0	0	0	0	509
3	0	0	0	0	530
4	0	0	0	0	502
5	0	0	0	0	505
6	0	0	0	0	522
7	0	0	0	0	496
8	0	0	0	0	519
9	0	0	0	0	487
10	0	0	0	0	527
11	0	0	0	0	493
12	0	0	0	0	521
13	0	0	0	0	484
14	0	0	0	0	487
15	0	0	0	0	566
0	0	0	0	0	517
1	0	0	0	0	482
2	0	0	0	0	525
3	0	0	0	0	544
4	0	0	0	0	532
5	0	0	0	0	470
6	0	0	0	0	493
7	0	0	0	0	500
8	0	0	0	0	511
9	0	0	0	0	494
10	0	0	0	0	515
11	0	0	0	0	513
12	0	0	0	0	498
13	0	0	0	0	504
14	0	0	0	0	521
15	0	0	0	0	505
0	0	0	0	0	532
1	0	0	0	0	497
2	0	0	0	0	500
3	0	0	0	0	507
4	0	0	0	0	508
5	0	0	0	0	514
6	0	0	0	0	522
7	0	0	0	0	510
8	0	0	0	0	517
9	0	0	0	0	517
10	0	0	0	0	551
11	0	0	0	0	530
12	0	0	0	0	509
13	0	0	0	0	486
14	0	0	0	0	504
15	0	0	0	0	469
0	0	0	0	0	504
1	0	0	0	0	483
2	0	0	0	0	535
3	0	0	0	0	469
4	0	0	0	0	499
5	0	0	0	0	508
6	0	0	0	0	525
7	0	0	0	0	516
8	0	0	0	0	523
9	0	0	0	0	496
10	0	0	0	0	490
11	0	0	0	0	509
12	0	0	0	0	535
13	0	0	0	0	512
14	0	0	0	0	523
15	0	0	0	0	489
0	0	0	0	0	521
1	0	0	0	0	504
2	0	0	0	0	500
3	0	0	0	0	488
4	0	0	0	0	542
5	0	0	0	0	490
6	0	0	0	0	542
7	0	0	0	0	508
8	0	0	0	0	535
9	0	0	0	0	529
10	0	0	0	0	514
11	0	0	0	0	502
12	0	0	0	0	536
13	0	0	0	0	507
14	0	0	0	0	522
15	0	0	0	0	484
0	0	0	0	0	509
1	0	0	0	0	507
2	0	0	0	0	494
3	0	0	0	0	507
4	0	0	0	0	541
5	0	0	0	0	511
6	0	0	0	0	521
7	0	0	0	0	512
8	0	0	0	0	516
9	0	0	0	0	496
10	0	0	0	0	519
11	0	0	0	0	499
12	0	0	0	0	539
13	0	0	0	0	489
14	0	0	0	0	526
15	0	0	0	0	476
0	0	0	0	0	509
1	0	0	0	0	524
2	0	0	0	0	532
3	0	0	0	0	511
4	0	0	0	0	525
5	0	0	0	0	503
6	0	0	0	0	518
7	0	0	0	0	511
8	0	0	0	0	530
9	0	0	0	0	503
10	0	0	0	0	508
11	0	0	0	0	491
12	0	0	0	0	521
13	0	0	0	0	504
14	0	0	0	0	519
15	0	0	0	0	514
0	0	0	0	0	534
1	0	0	0	0	496
2	0	0	0	0	528
3	0	0	0	0	509
4	0	0	0	0	522
5	0	0	0	0	517
6	0	0	0	0	492
7	0	0	0	0	500
8	0	0	0	0	515
9	0	0	0	0	508
10	0	0	0	0	520
11	0	0	0	0	508
12	0	0	0	0	523
13	0	0	0	0	495
14	0	0	0	0	511
15	0	0	0	0	494
0	0	0	0	0	495
1	0	0	0	0	512
2	0	0	0	0	530
3	0	0	0	0	515
4	0	0	0	0	523
5	0	0	0	0	511
6	0	0	0	0	519
7	0	0	0	0	509
8	0	0	0	0	508
9	0	0	0	0	515
10	0	0	0	0	502
11	0	0	0	0	509
12	0	0	0	0	524
13	0	0	0	0	513
14	0	0	0	0	513
15	0	0	0	0	508
0	0	0	0	0	538
1	0	0	0	0	494
2	0	0	0	0	514
3	0	0	0	0	528
4	0	0	0	0	520
5	0	0	0	0	500
6	0	0	0	0	518
7	0	0	0	0	516
8	0	0	0	0	499
9	0	0	0	0	486
10	0	0	0	0	511
11	0	0	0	0	523
12	0	0	0	0	511
13	0	0	0	0	495
14	0	0	0	0	522
15	0	0	0	0	505
0	0	0	0	0	528
1	0	0	0	0	497
2	0	0	0	0	509
3	0	0	0	0	518
4	0	0	0	0	517
5	0	0	0	0	509
6	0	0	0	0	478
7	0	0	0	0	490
8	0	0	0	0	499
9	0	0	0	0	508
10	0	0	0	0	530
11	0	0	0	0	515
12	0	0	0	0	514
13	0	0	0	0	492
14	0	0	0	0	490
15	0	0	0	0	533
0	0	0	0	0	505
1	0	0	0	0	525
2	0	0	0	0	514
3	0	0	0	0	504
4	0	0	0	0	526
5	0	0	0	0	509
6	0	0	0	0	508
7	0	0	0	0	531
8	0	0	0	0	525
9	0	0	0	0	516
10	0	0	0	0	507
11	0	0	0	0	507
12	0	0	0	0	508
13	0	0	0	0	543
14	0	0	0	0	510
15	0	0	0	0	524
0	0	0	0	0	508
1	0	0	0	0	525
2	0	0	0	0	510
3	0	0	0	0	497
4	0	0	0	0	508
5	0	0	0	0	490
6	0	0	0	0	524
7	0	0	0	0	516
8	0	0	0	0	508
9	0	0	0	0	532
10	0	0	0	0	520
11	0	0	0	0	514
12	0	0	0	0	516
13	0	0	0	0	554
14	0	0	0	0	510
15	0	0	0	0	527
0	0	0	0	0	503
1	0	0	0	0	511
2	0	0	0	0	502
3	0	0	0	0	560
4	0	0	0	0	495
5	0	0	0	0	518
6	0	0	0	0	506
7	0	0	0	0	531
8	0	0	0	0	517
9	0	0	0	0	540
10	0	0	0	0	511
11	0	0	0	0	522
12	0	0	0	0	512
13	0	0	0	0	514
14	0	0	0	0	547
15	0	0	0	0	541
0	0	0	0	0	500
1	0	0	0	0	516
2	0	0	0	0	516
3	0	0	0	0	527
4	0	0	0	0	508
5	0	0	0	0	512
6	0	0	0	0	488
7	0	0	0	0	532
8	0	0	0	0	499
9	0	0	0	0	506
10	0	0	0	0	509
11	0	0	0	0	522
12	0	0	0	0	492
13	0	0	0	0	516
14	0	0	0	0	508
15	0	0	0	0	505
0	0	0	0	0	502
1	0	0	0	0	515
2	0	0	0	0	506
3	0	0	0	0	531
4	0	0	0	0	496
5	0	0	0	0	519
6	0	0	0	0	524
7	0	0	0	0	529
8	0	0	0	0	503
9	0	0	0	0	524
10	0	0	0	0	516
11	0	0	0	0	544
12	0	0	0	0	509
13	0	0	0	0	519
14	0	0	0	0	484
15	0	0	0	0	514
0	0	0	0	0	504
1	0	0	0	0	597
2	0	0	0	0	490
3	0	0	0	0	490
4	0	0	0	0	591
5	0	0	0	0	470
6	0	0	0	0	514
7	0	0	0	0	557
8	0	0	0	0	446
9	0	0	0	0	807
10	0	0	0	0	528
11	0	0	0	0	467
12	0	0	0	0	629
13	0	0	0	0	503
14	0	0	0	0	494
15	0	0	0	0	571
0	0	0	0	0	330
1	0	0	0	0	867
2	0	0	0	0	135
3	0	0	0	0	724
4	0	0	0	0	71
5	0	0	0	0	912
6	0	0	0	0	584
7	0	0	0	0	430
8	0	0	0	0	1022
9	0	0	0	0	110
10	0	0	0	0	598
11	0	0	0	0	521
12	0	0	0	0	465
13	0	0	0	0	612
14	0	0	0	0	1022
15	0	0	0	0	787
0	0	0	0	0	0
1	0	0	0	0	271
2	0	0	0	0	0
3	0	0	0	0	850
4	0	0	0	0	380
5	0	0	0	0	624
6	0	0	0	0	247
7	0	0	0	0	0
8	0	0	0	0	434
9	0	0	0	0	175
10	0	0	0	0	621
11	0	0	0	0	655
12	0	0	0	0	530
13	0	0	0	0	307
14	0	0	0	0	0
15	0	0	0	0	1020
0	0	0	0	0	316
1	0	0	0	0	469
2	0	0	0	0	547
3	0	0	0	0	0
4	0	0	0	0	574
5	0	0	0	0	324
6	0	0	0	0	1022
7	0	0	0	0	582
8	0	0	0	0	0
9	0	0	0	0	1022
10	0	0	0	0	645
11	0	0	0	0	1022
12	0	0	0	0	0
13	0	0	0	0	602
14	0	0	0	0	881
15	0	0	0	0	634
0	0	0	0	0	227
1	0	0	0	0	398
2	0	0	0	0	699
3	0	0	0	0	808
4	0	0	0	0	0
5	0	0	0	0	796
6	0	0	0	0	401
7	0	0	0	0	363
8	0	0	0	0	344
9	0	0	0	0	886
10	0	0	0	0	0
11	0	0	0	0	310
12	0	0	0	0	782
13	0	0	0	0	221
14	0	0	0	0	790
15	0	0	0	0	1022
0	0	0	0	0	100
1	0	0	0	0	828
2	0	0	0	0	157
3	0	0	0	0	1022
4	0	0	0	0	625
5	0	0	0	0	167
6	0	0	0	0	684
7	0	0	0	0	234
8	0	0	0	0	741
9	0	0	0	0	332
10	0	0	0	0	163
11	0	0	0	0	515
12	0	0	0	0	664
13	0	0	0	0	669
14	0	0	0	0	75
15	0	0	0	0	211
0	0	0	0	0	704
1	0	0	0	0	1022
2	0	0	0	0	333
3	0	0	0	0	1022
4	0	0	0	0	829
5	0	0	0	0	398
6	0	0	0	0	693
7	0	0	0	0	446
8	0	0	0	0	346
9	0	0	0	0	766
10	0	0	0	0	671
11	0	0	0	0	595
12	0	0	0	0	354
13	0	0	0	0	440
14	0	0	0	0	162
15	0	0	0	0	570
0	0	0	0	0	431
1	0	0	0	0	591
2	0	0	0	0	490
3	0	0	0	0	574
4	0	0	0	0	519
5	0	0	0	0	293
6	0	0	0	0	627
7	0	0	0	0	294
8	0	0	0	0	524
9	0	0	0	0	570
10	0	0	0	0	494
11	0	0	0	0	586
12	0	0	0	0	455
13	0	0	0	0	440
14	0	0	0	0	527
15	0	0	0	0	485
0	0	0	0	0	492
1	0	0	0	0	461
2	0	0	0	0	504
3	0	0	0	0	512
4	0	0	0	0	545
5	0	0	0	0	493
6	0	0	0	0	523
7	0	0	0	0	527
8	0	0	0	0	468
9	0	0	0	0	541
10	0	0	0	0	411
11	0	0	0	0	503
12	0	0	0	0	532
13	0	0	0	0	515
14	0	0	0	0	502
15	0	0	0	0	515
0	0	0	0	0	482
1	0	0	0	0	535
2	0	0	0	0	497
3	0	0	0	0	449
4	0	0	0	0	516
5	0	0	0	0	513
6	0	0	0	0	507
7	0	0	0	0	536
8	0	0	0	0	503
9	0	0	0	0	527
10	0	0	0	0	516
11	0	0	0	0	503
12	0	0	0	0	503
13	0	0	0	0	515
14	0	0	0	0	534
15	0	0	0	0	516
0	0	0	0	0	482
1	0	0	0	0	515
2	0	0	0	0	494
3	0	0	0	0	467
4	0	0	0	0	523
5	0	0	0	0	510
6	0	0	0	0	513
7	0	0	0	0	515
8	0	0	0	0	494
9	0	0	0	0	525
10	0	0	0	0	555
11	0	0	0	0	495
12	0	0	0	0	506
13	0	0	0	0	509
14	0	0	0	0	539
15	0	0	0	0	509
0	0	0	0	0	486
1	0	0	0	0	550
2	0	0	0	0	487
3	0	0	0	0	508
4	0	0	0	0	550
5	0	0	0	0	497
6	0	0	0	0	463
7	0	0	0	0	562
8	0	0	0	0	489
9	0	0	0	0	522
10	0	0	0	0	493
11	0	0	0	0	540
12	0	0	0	0	480
13	0	0	0	0	570
14	0	0	0	0	548
15	0	0	0	0	506
0	0	0	0	0	487
1	0	0	0	0	519
2	0	0	0	0	484
3	0	0	0	0	542
4	0	0	0	0	499
5	0	0	0	0	526
6	0	0	0	0	498
7	0	0	0	0	545
8	0	0	0	0	521
9	0	0	0	0	519
10	0	0	0	0	485
11	0	0	0	0	509
12	0	0	0	0	488
13	0	0	0	0	515
14	0	0	0	0	490
15	0	0	0	0	524
0	0	0	0	0	510
1	0	0	0	0	513
2	0	0	0	0	483
3	0	0	0	0	561
4	0	0	0	0	476
5	0	0	0	0	502
6	0	0	0	0	435
7	0	0	0	0	521
8	0	0	0	0	456
9	0	0	0	0	511
10	0	0	0	0	504
11	0	0	0	0	549
12	0	0	0	0	476
13	0	0	0	0	526
14	0	0	0	0	503
15	0	0	0	0	550
0	0	0	0	0	457
1	0	0	0	0	527
2	0	0	0	0	497
3	0	0	0	0	526
4	0	0	0	0	457
5	0	0	0	0	527
6	0	0	0	0	512
7	0	0	0	0	561
8	0	0	0	0	471
9	0	0	0	0	513
10	0	0	0	0	493
11	0	0	0	0	547
12	0	0	0	0	522
13	0	0	0	0	578
14	0	0	0	0	478
15	0	0	0	0	524
0	0	0	0	0	521
1	0	0	0	0	539
2	0	0	0	0	483
3	0	0	0	0	545
4	0	0	0	0	478
5	0	0	0	0	558
6	0	0	0	0	498
7	0	0	0	0	501
8	0	0	0	0	499
9	0	0	0	0	535
10	0	0	0	0	476
11	0	0	0	0	563
12	0	0	0	0	491
13	0	0	0	0	575
14	0	0	0	0	546
15	0	0	0	0	528
0	0	0	0	0	507
1	0	0	0	0	558
2	0	0	0	0	483
3	0	0	0	0	569
4	0	0	0	0	472
5	0	0	0	0	525
6	0	0	0	0	483
7	0	0	0	0	553
8	0	0	0	0	521
9	0	0	0	0	515
10	0	0	0	0	455
11	0	0	0	0	522
12	0	0	0	0	542
13	0	0	0	0	527
14	0	0	0	0	484
15	0	0	0	0	530
0	0	0	0	0	478
1	0	0	0	0	525
2	0	0	0	0	506
3	0	0	0	0	537
4	0	0	0	0	498
5	0	0	0	0	543
6	0	0	0	0	443
7	0	0	0	0	559
8	0	0	0	0	524
9	0	0	0	0	546
10	0	0	0	0	478
11	0	0	0	0	541
12	0	0	0	0	487
13	0	0	0	0	538
14	0	0	0	0	489
15	0	0	0	0	524
0	0	0	0	0	501
1	0	0	0	0	542
2	0	0	0	0	513
3	0	0	0	0	523
4	0	0	0	0	482
5	0	0	0	0	524
6	0	0	0	0	483
7	0	0	0	0	549
8	0	0	0	0	483
9	0	0	0	0	529
10	0	0	0	0	489
11	0	0	0	0	540
12	0	0	0	0	491
13	0	0	0	0	563
14	0	0	0	0	464
15	0	0	0	0	531
0	0	0	0	0	488
1	0	0	0	0	607
2	0	0	0	0	483
3	0	0	0	0	539
4	0	0	0	0	470
5	0	0	0	0	554
6	0	0	0	0	505
7	0	0	0	0	536
8	0	0	0	0	485
9	0	0	0	0	562
10	0	0	0	0	480
11	0	0	0	0	519
12	0	0	0	0	477
13	0	0	0	0	560
14	0	0	0	0	485
15	0	0	0	0	553
0	0	0	0	0	490
1	0	0	0	0	545
2	0	0	0	0	486
3	0	0	0	0	540
4	0	0	0	0	494
5	0	0	0	0	588
6	0	0	0	0	478
7	0	0	0	0	551
8	0	0	0	0	486
9	0	0	0	0	575
10	0	0	0	0	472
11	0	0	0	0	540
12	0	0	0	0	486
13	0	0	0	0	533
14	0	0	0	0	491
15	0	0	0	0	543
0	0	0	0	0	467
1	0	0	0	0	518
2	0	0	0	0	487
3	0	0	0	0	542
4	0	0	0	0	497
5	0	0	0	0	532
6	0	0	0	0	457
7	0	0	0	0	547
8	0	0	0	0	478
9	0	0	0	0	563
10	0	0	0	0	425
11	0	0	0	0	545
12	0	0	0	0	495
13	0	0	0	0	531
14	0	0	0	0	495
15	0	0	0	0	556
0	0	0	0	0	505
1	0	0	0	0	550
2	0	0	0	0	514
3	0	0	0	0	553
4	0	0	0	0	480
5	0	0	0	0	546
6	0	0	0	0	544
7	0	0	0	0	544
8	0	0	0	0	512
9	0	0	0	0	551
10	0	0	0	0	484
11	0	0	0	0	559
12	0	0	0	0	454
13	0	0	0	0	555
14	0	0	0	0	449
15	0	0	0	0	516
0	0	0	0	0	480
1	0	0	0	0	544
2	0	0	0	0	483
3	0	0	0	0	556
4	0	0	0	0	460
5	0	0	0	0	526
6	0	0	0	0	505
7	0	0	0	0	550
8	0	0	0	0	478
9	0	0	0	0	558
10	0	0	0	0	476
11	0	0	0	0	552
12	0	0	0	0	489
13	0	0	0	0	514
14	0	0	0	0	457
15	0	0	0	0	542
0	0	0	0	0	463
1	0	0	0	0	557
2	0	0	0	0	471
3	0	0	0	0	548
4	0	0	0	0	491
5	0	0	0	0	622
6	0	0	0	0	467
7	0	0	0	0	482
8	0	0	0	0	485
9	0	0	0	0	554
10	0	0	0	0	385
11	0	0	0	0	536
12	0	0	0	0	462
13	0	0	0	0	550
14	0	0	0	0	476
15	0	0	0	0	488
0	0	0	0	0	467
1	0	0	0	0	519
2	0	0	0	0	475
3	0	0	0	0	553
4	0	0	0	0	425
5	0	0	0	0	661
6	0	0	0	0	428
7	0	0	0	0	524
8	0	0	0	0	556
9	0	0	0	0	395
10	0	0	0	0	627
11	0	0	0	0	441
12	0	0	0	0	421
13	0	0	0	0	760
14	0	0	0	0	163
15	0	0	0	0	905
0	0	0	0	0	401
1	0	0	0	0	395
2	0	0	0	0	859
3	0	0	0	0	215
4	0	0	0	0	457
5	0	0	0	0	724
6	0	0	0	0	233
7	0	0	0	0	672
8	0	0	0	0	458
9	0	0	0	0	468
10	0	0	0	0	522
11	0	0	0	0	1022
12	0	0	0	0	532
13	0	0	0	0	900
14	0	0	0	0	555
15	0	0	0	0	405
0	0	0	0	0	737
1	0	0	0	0	0
2	0	0	0	0	1022
3	0	0	0	0	179
4	0	0	0	0	233
5	0	0	0	0	333
6	0	0	0	0	0
7	0	0	0	0	1022
8	0	0	0	0	703
9	0	0	0	0	313
10	0	0	0	0	1022
11	0	0	0	0	581
12	0	0	0	0	101
13	0	0	0	0	535
14	0	0	0	0	462
15	0	0	0	0	717
0	0	0	0	0	1022
1	0	0	0	0	284
2	0	0	0	0	428
3	0	0	0	0	0
4	0	0	0	0	571
5	0	0	0	0	693
6	0	0	0	0	289
7	0	0	0	0	626
8	0	0	0	0	1022
9	0	0	0	0	641
10	0	0	0	0	159
11	0	0	0	0	320
12	0	0	0	0	912
13	0	0	0	0	279
14	0	0	0	0	300
15	0	0	0	0	50
0	0	0	0	0	543
1	0	0	0	0	848
2	0	0	0	0	527
3	0	0	0	0	586
4	0	0	0	0	329
5	0	0	0	0	0
6	0	0	0	0	888
7	0	0	0	0	610
8	0	0	0	0	42
9	0	0	0	0	645
10	0	0	0	0	132
11	0	0	0	0	375
12	0	0	0	0	715
13	0	0	0	0	0
14	0	0	0	0	468
15	0	0	0	0	0
0	0	0	0	0	701
1	0	0	0	0	779
2	0	0	0	0	399
3	0	0	0	0	319
4	0	0	0	0	1022
5	0	0	0	0	0
6	0	0	0	0	605
7	0	0	0	0	476
8	0	0	0	0	0
9	0	0	0	0	628
10	0	0	0	0	175
11	0	0	0	0	589
12	0	0	0	0	642
13	0	0	0	0	430
14	0	0	0	0	774
15	0	0	0	0	388
0	0	0	0	0	410
1	0	0	0	0	591
2	0	0	0	0	538
3	0	0	0	0	713
4	0	0	0	0	663
5	0	0	0	0	505
6	0	0	0	0	424
7	0	0	0	0	681
8	0	0	0	0	452
9	0	0	0	0	443
10	0	0	0	0	466
11	0	0	0	0	533
12	0	0	0	0	484
13	0	0	0	0	491
14	0	0	0	0	460
15	0	0	0	0	545
0	0	0	0	0	500
1	0	0	0	0	462
2	0	0	0	0	505
3	0	0	0	0	513
4	0	0	0	0	515
5	0	0	0	0	526
6	0	0	0	0	499
7	0	0	0	0	369
8	0	0	0	0	576
9	0	0	0	0	451
10	0	0	0	0	506
11	0	0	0	0	532
12	0	0	0	0	497
13	0	0	0	0	475
14	0	0	0	0	535
15	0	0	0	0	500
0	0	0	0	0	492
1	0	0	0	0	537
2	0	0	0	0	496
3	0	0	0	0	508
4	0	0	0	0	551
5	0	0	0	0	495
6	0	0	0	0	486
7	0	0	0	0	571
8	0	0	0	0	515
9	0	0	0	0	546
10	0	0	0	0	506
11	0	0	0	0	507
12	0	0	0	0	474
13	0	0	0	0	638
14	0	0	0	0	473
15	0	0	0	0	541
0	0	0	0	0	542
1	0	0	0	0	513
2	0	0	0	0	487
3	0	0	0	0	572
4	0	0	0	0	473
5	0	0	0	0	540
6	0	0	0	0	462
7	0	0	0	0	514
8	0	0	0	0	535
9	0	0	0	0	508
10	0	0	0	0	509
11	0	0	0	0	504
12	0	0	0	0	463
13	0	0	0	0	488
14	0	0	0	0	533
15	0	0	0	0	466
0	0	0	0	0	493
1	0	0	0	0	501
2	0	0	0	0	608
3	0	0	0	0	524
4	0	0	0	0	475
5	0	0	0	0	513
6	0	0	0	0	505
7	0	0	0	0	549
8	0	0	0	0	496
9	0	0	0	0	501
10	0	0	0	0	549
11	0	0	0	0	527
12	0	0	0	0	517
13	0	0	0	0	571
14	0	0	0	0	490
15	0	0	0	0	539
0	0	0	0	0	466
1	0	0	0	0	568
2	0	0	0	0	506
3	0	0	0	0	509
4	0	0	0	0	494
5	0	0	0	0	502
6	0	0	0	0	483
7	0	0	0	0	603
8	0	0	0	0	496
9	0	0	0	0	511
10	0	0	0	0	544
11	0	0	0	0	511
12	0	0	0	0	460
13	0	0	0	0	516
14	0	0	0	0	529
15	0	0	0	0	522
0	0	0	0	0	511
1	0	0	0	0	508
2	0	0	0	0	511
3	0	0	0	0	545
4	0	0	0	0	471
5	0	0	0	0	544
6	0	0	0	0	493
7	0	0	0	0	561
8	0	0	0	0	469
9	0	0	0	0	514
10	0	0	0	0	484
11	0	0	0	0	494
12	0	0	0	0	513
13	0	0	0	0	519
14	0	0	0	0	486
15	0	0	0	0	570
0	0	0	0	0	495
1	0	0	0	0	514
2	0	0	0	0	514
3	0	0	0	0	556
4	0	0	0	0	496
5	0	0	0	0	511
6	0	0	0	0	512
7	0	0	0	0	507
8	0	0	0	0	516
9	0	0	0	0	542
10	0	0	0	0	499
11	0	0	0	0	521
12	0	0	0	0	566
13	0	0	0	0	508
14	0	0	0	0	502
15	0	0	0	0	531
0	0	0	0	0	505
1	0	0	0	0	506
2	0	0	0	0	523
3	0	0	0	0	535
4	0	0	0	0	508
5	0	0	0	0	494
6	0	0	0	0	648
7	0	0	0	0	531
8	0	0	0	0	484
9	0	0	0	0	527
10	0	0	0	0	483
11	0	0	0	0	536
12	0	0	0	0	480
13	0	0	0	0	521
14	0	0	0	0	495
15	0	0	0	0	507
0	0	0	0	0	491
1	0	0	0	0	509
2	0	0	0	0	467
3	0	0	0	0	531
4	0	0	0	0	505
5	0	0	0	0	541
6	0	0	0	0	539
7	0	0	0	0	540
8	0	0	0	0	499
9	0	0	0	0	549
10	0	0	0	0	482
11	0	0	0	0	515
12	0	0	0	0	496
13	0	0	0	0	509
14	0	0	0	0	569
15	0	0	0	0	561
0	0	0	0	0	474
1	0	0	0	0	527
2	0	0	0	0	531
3	0	0	0	0	527
4	0	0	0	0	503
5	0	0	0	0	505
6	0	0	0	0	527
7	0	0	0	0	552
8	0	0	0	0	499
9	0	0	0	0	496
10	0	0	0	0	487
11	0	0	0	0	516
12	0	0	0	0	498
13	0	0	0	0	545
14	0	0	0	0	510
15	0	0	0	0	512
0	0	0	0	0	492
1	0	0	0	0	558
2	0	0	0	0	534
3	0	0	0	0	498
4	0	0	0	0	476
5	0	0	0	0	493
6	0	0	0	0	484
7	0	0	0	0	504
8	0	0	0	0	509
9	0	0	0	0	587
10	0	0	0	0	531
11	0	0	0	0	480
12	0	0	0	0	480
13	0	0	0	0	515
14	0	0	0	0	510
15	0	0	0	0	536
0	0	0	0	0	499
1	0	0	0	0	542
2	0	0	0	0	508
3	0	0	0	0	515
4	0	0	0	0	488
5	0	0	0	0	497
6	0	0	0	0	511
7	0	0	0	0	528
8	0	0	0	0	717
9	0	0	0	0	496
10	0	0	0	0	488
11	0	0	0	0	500
12	0	0	0	0	475
13	0	0	0	0	527
14	0	0	0	0	536
15	0	0	0	0	532
0	0	0	0	0	489
1	0	0	0	0	561
2	0	0	0	0	542
3	0	0	0	0	525
4	0	0	0	0	491
5	0	0	0	0	547
6	0	0	0	0	394
7	0	0	0	0	513
8	0	0	0	0	514
9	0	0	0	0	516
10	0	0	0	0	491
11	0	0	0	0	505
12	0	0	0	0	530
13	0	0	0	0	513
14	0	0	0	0	438
15	0	0	0	0	574
0	0	0	0	0	520
1	0	0	0	0	528
2	0	0	0	0	563
3	0	0	0	0	525
4	0	0	0	0	503
5	0	0	0	0	521
6	0	0	0	0	496
7	0	0	0	0	559
8	0	0	0	0	506
9	0	0	0	0	537
10	0	0	0	0	483
11	0	0	0	0	578
12	0	0	0	0	506
13	0	0	0	0	512
14	0	0	0	0	520
15	0	0	0	0	498
0	0	0	0	0	487
1	0	0	0	0	521
2	0	0	0	0	479
3	0	0	0	0	516
4	0	0	0	0	536
5	0	0	0	0	511
6	0	0	0	0	479
7	0	0	0	0	505
8	0	0	0	0	480
9	0	0	0	0	524
10	0	0	0	0	487
11	0	0	0	0	576
12	0	0	0	0	513
13	0	0	0	0	535
14	0	0	0	0	486
15	0	0	0	0	524
0	0	0	0	0	533
1	0	0	0	0	522
2	0	0	0	0	498
3	0	0	0	0	517
4	0	0	0	0	520
5	0	0	0	0	487
6	0	0	0	0	479
7	0	0	0	0	506
8	0	0	0	0	421
9	0	0	0	0	539
10	0	0	0	0	514
11	0	0	0	0	542
12	0	0	0	0	547
13	0	0	0	0	554
14	0	0	0	0	496
15	0	0	0	0	551
0	0	0	0	0	501
1	0	0	0	0	533
2	0	0	0	0	502
3	0	0	0	0	529
4	0	0	0	0	485
5	0	0	0	0	604
6	0	0	0	0	516
7	0	0	0	0	525
8	0	0	0	0	491
9	0	0	0	0	526
10	0	0	0	0	494
11	0	0	0	0	536
12	0	0	0	0	548
13	0	0	0	0	504
14	0	0	0	0	478
15	0	0	0	0	534
0	0	0	0	0	462
1	0	0	0	0	529
2	0	0	0	0	556
3	0	0	0	0	505
4	0	0	0	0	510
5	0	0	0	0	512
6	0	0	0	0	621
7	0	0	0	0	516
8	0	0	0	0	537
9	0	0	0	0	525
10	0	0	0	0	454
11	0	0	0	0	654
12	0	0	0	0	150
13	0	0	0	0	758
14	0	0	0	0	332
15	0	0	0	0	657
0	0	0	0	0	1022
1	0	0	0	0	0
2	0	0	0	0	1022
3	0	0	0	0	0
4	0	0	0	0	789
5	0	0	0	0	539
6	0	0	0	0	272
7	0	0	0	0	393
8	0	0	0	0	810
9	0	0	0	0	0
10	0	0	0	0	510
11	0	0	0	0	806
12	0	0	0	0	0
13	0	0	0	0	636
14	0	0	0	0	442
15	0	0	0	0	675
0	0	0	0	0	454
1	0	0	0	0	390
2	0	0	0	0	314
3	0	0	0	0	528
4	0	0	0	0	322
5	0	0	0	0	124
6	0	0	0	0	786
7	0	0	0	0	295
8	0	0	0	0	541
9	0	0	0	0	495
10	0	0	0	0	356
11	0	0	0	0	574
12	0	0	0	0	319
13	0	0	0	0	453
14	0	0	0	0	1022
15	0	0	0	0	670
0	0	0	0	0	375
1	0	0	0	0	315
2	0	0	0	0	381
3	0	0	0	0	589
4	0	0	0	0	931
5	0	0	0	0	396
6	0	0	0	0	730
7	0	0	0	0	1022
8	0	0	0	0	656
9	0	0	0	0	351
10	0	0	0	0	699
11	0	0	0	0	591
12	0	0	0	0	0
13	0	0	0	0	481
14	0	0	0	0	656
15	0	0	0	0	1022
0	0	0	0	0	314
1	0	0	0	0	263
2	0	0	0	0	643
3	0	0	0	0	750
4	0	0	0	0	279
5	0	0	0	0	943
6	0	0	0	0	148
7	0	0	0	0	386
8	0	0	0	0	1022
9	0	0	0	0	595
10	0	0	0	0	212
11	0	0	0	0	270
12	0	0	0	0	246
13	0	0	0	0	1022
14	0	0	0	0	523
15	0	0	0	0	0
0	0	0	0	0	652
1	0	0	0	0	184
2	0	0	0	0	482
3	0	0	0	0	166
4	0	0	0	0	0
5	0	0	0	0	613
6	0	0	0	0	444
7	0	0	0	0	8
8	0	0	0	0	287
9	0	0	0	0	611
10	0	0	0	0	1022
11	0	0	0	0	392
12	0	0	0	0	897
13	0	0	0	0	188
14	0	0	0	0	467
15	0	0	0	0	467
0	0	0	0	0	189
1	0	0	0	0	469
2	0	0	0	0	71
3	0	0	0	0	12
4	0	0	0	0	692
5	0	0	0	0	447
6	0	0	0	0	1022
7	0	0	0	0	113
8	0	0	0	0	639
9	0	0	0	0	166
10	0	0	0	0	1022
11	0	0	0	0	220
12	0	0	0	0	204
13	0	0	0	0	846
14	0	0	0	0	72
15	0	0	0	0	101
0	0	0	0	0	510
1	0	0	0	0	194
2	0	0	0	0	567
3	0	0	0	0	416
4	0	0	0	0	455
5	0	0	0	0	711
6	0	0	0	0	507
7	0	0	0	0	266
8	0	0	0	0	277
9	0	0	0	0	466
10	0	0	0	0	174
11	0	0	0	0	173
12	0	0	0	0	479
13	0	0	0	0	0
14	0	0	0	0	841
15	0	0	0	0	296
0	0	0	0	0	229
1	0	0	0	0	176
2	0	0	0	0	560
3	0	0	0	0	615
4	0	0	0	0	638
5	0	0	0	0	499
6	0	0	0	0	457
7	0	0	0	0	629
8	0	0	0	0	445
9	0	0	0	0	441
10	0	0	0	0	589
11	0	0	0	0	958
12	0	0	0	0	402
13	0	0	0	0	467
14	0	0	0	0	703
15	0	0	0	0	440
0	0	0	0	0	598
1	0	0	0	0	511
2	0	0	0	0	384
3	0	0	0	0	516
4	0	0	0	0	484
5	0	0	0	0	473
6	0	0	0	0	462
7	0	0	0	0	521
8	0	0	0	0	498
9	0	0	0	0	503
10	0	0	0	0	494
11	0	0	0	0	464
12	0	0	0	0	543
13	0	0	0	0	495
14	0	0	0	0	384
15	0	0	0	0	604
0	0	0	0	0	464
1	0	0	0	0	685
2	0	0	0	0	630
3	0	0	0	0	575
4	0	0	0	0	529
5	0	0	0	0	453
6	0	0	0	0	434
7	0	0	0	0	638
8	0	0	0	0	498
9	0	0	0	0	517
10	0	0	0	0	460
11	0	0	0	0	578
12	0	0	0	0	530
13	0	0	0	0	521
14	0	0	0	0	501
15	0	0	0	0	499
0	0	0	0	0	537
1	0	0	0	0	543
2	0	0	0	0	505
3	0	0	0	0	452
4	0	0	0	0	480
5	0	0	0	0	518
6	0	0	0	0	511
7	0	0	0	0	479
8	0	0	0	0	516
9	0	0	0	0	498
10	0	0	0	0	504
11	0	0	0	0	482
12	0	0	0	0	513
13	0	0	0	0	519
14	0	0	0	0	485
15	0	0	0	0	588
0	0	0	0	0	485
1	0	0	0	0	505
2	0	0	0	0	539
3	0	0	0	0	496
4	0	0	0	0	507
5	0	0	0	0	578
6	0	0	0	0	518
7	0	0	0	0	504
8	0	0	0	0	503
9	0	0	0	0	527
10	0	0	0	0	496
11	0	0	0	0	547
12	0	0	0	0	495
13	0	0	0	0	490
14	0	0	0	0	536
15	0	0	0	0	514
0	0	0	0	0	508
1	0	0	0	0	515
2	0	0	0	0	523
3	0	0	0	0	495
4	0	0	0	0	527
5	0	0	0	0	506
6	0	0	0	0	512
7	0	0	0	0	519
8	0	0	0	0	519
9	0	0	0	0	531
10	0	0	0	0	500
11	0	0	0	0	536
12	0	0	0	0	512
13	0	0	0	0	504
14	0	0	0	0	544
15	0	0	0	0	505
0	0	0	0	0	498
1	0	0	0	0	530
2	0	0	0	0	521
3	0	0	0	0	483
4	0	0	0	0	517
5	0	0	0	0	503
6	0	0	0	0	527
7	0	0	0	0	507
8	0	0	0	0	510
9	0	0	0	0	496
10	0	0	0	0	487
11	0	0	0	0	525
12	0	0	0	0	540
13	0	0	0	0	512
14	0	0	0	0	505
15	0	0	0	0	521
0	0	0	0	0	513
1	0	0	0	0	508
2	0	0	0	0	575
3	0	0	0	0	503
4	0	0	0	0	495
5	0	0	0	0	537
6	0	0	0	0	507
7	0	0	0	0	505
8	0	0	0	0	508
9	0	0	0	0	504
10	0	0	0	0	503
11	0	0	0	0	571
12	0	0	0	0	481
13	0	0	0	0	520
14	0	0	0	0	514
15	0	0	0	0	508
0	0	0	0	0	532
1	0	0	0	0	504
2	0	0	0	0	518
3	0	0	0	0	510
4	0	0	0	0	512
5	0	0	0	0	554
6	0	0	0	0	499
7	0	0	0	0	500
8	0	0	0	0	498
9	0	0	0	0	508
10	0	0	0	0	527
11	0	0	0	0	524
12	0	0	0	0	521
13	0	0	0	0	541
14	0	0	0	0	498
15	0	0	0	0	515
0	0	0	0	0	516
1	0	0	0	0	513
2	0	0	0	0	513
3	0	0	0	0	523
4	0	0	0	0	507
5	0	0	0	0	545
6	0	0	0	0	513
7	0	0	0	0	486
8	0	0	0	0	513
9	0	0	0	0	506
10	0	0	0	0	513
11	0	0	0	0	522
12	0	0	0	0	519
13	0	0	0	0	499
14	0	0	0	0	531
15	0	0	0	0	509
0	0	0	0	0	527
1	0	0	0	0	526
2	0	0	0	0	508
3	0	0	0	0	537
4	0	0	0	0	511
5	0	0	0	0	515
6	0	0	0	0	524
7	0	0	0	0	507
8	0	0	0	0	511
9	0	0	0	0	513
10	0	0	0	0	509
11	0	0	0	0	550
12	0	0	0	0	497
13	0	0	0	0	559
14	0	0	0	0	465
15	0	0	0	0	547
0	0	0	0	0	525
1	0	0	0	0	525
2	0	0	0	0	506
3	0	0	0	0	483
4	0	0	0	0	507
5	0	0	0	0	520
6	0	0	0	0	506
7	0	0	0	0	552
8	0	0	0	0	523
9	0	0	0	0	507
10	0	0	0	0	489
11	0	0	0	0	515
12	0	0	0	0	511
13	0	0	0	0	511
14	0	0	0	0	519
15	0	0	0	0	529
0	0	0	0	0	498
1	0	0	0	0	577
2	0	0	0	0	559
3	0	0	0	0	536
4	0	0	0	0	558
5	0	0	0	0	503
6	0	0	0	0	513
7	0	0	0	0	513
8	0	0	0	0	523
9	0	0	0	0	546
10	0	0	0	0	520
11	0	0	0	0	489
12	0	0	0	0	513
13	0	0	0	0	506
14	0	0	0	0	507
15	0	0	0	0	508
0	0	0	0	0	480
1	0	0	0	0	529
2	0	0	0	0	506
3	0	0	0	0	507
4	0	0	0	0	517
5	0	0	0	0	513
6	0	0	0	0	508
7	0	0	0	0	509
8	0	0	0	0	516
9	0	0	0	0	559
10	0	0	0	0	505
11	0	0	0	0	503
12	0	0	0	0	508
13	0	0	0	0	529
14	0	0	0	0	519
15	0	0	0	0	505
0	0	0	0	0	527
1	0	0	0	0	505
2	0	0	0	0	526
3	0	0	0	0	507
4	0	0	0	0	534
5	0	0	0	0	483
6	0	0	0	0	506
7	0	0	0	0	498
8	0	0	0	0	492
9	0	0	0	0	532
10	0	0	0	0	509
11	0	0	0	0	499
12	0	0	0	0	508
13	0	0	0	0	495
14	0	0	0	0	502
15	0	0	0	0	496
0	0	0	0	0	517
1	0	0	0	0	576
2	0	0	0	0	537
3	0	0	0	0	508
4	0	0	0	0	513
5	0	0	0	0	507
6	0	0	0	0	527
7	0	0	0	0	495
8	0	0	0	0	529
9	0	0	0	0	593
10	0	0	0	0	524
11	0	0	0	0	524
12	0	0	0	0	530
13	0	0	0	0	516
14	0	0	0	0	527
15	0	0	0	0	498
0	0	0	0	0	512
1	0	0	0	0	527
2	0	0	0	0	503
3	0	0	0	0	486
4	0	0	0	0	518
5	0	0	0	0	505
6	0	0	0	0	530
7	0	0	0	0	511
8	0	0	0	0	512
9	0	0	0	0	501
10	0	0	0	0	503
11	0	0	0	0	489
12	0	0	0	0	523
13	0	0	0	0	499
14	0	0	0	0	536
15	0	0	0	0	502
0	0	0	0	0	472
1	0	0	0	0	513
2	0	0	0	0	503
3	0	0	0	0	505
4	0	0	0	0	463
5	0	0	0	0	496
6	0	0	0	0	547
7	0	0	0	0	503
8	0	0	0	0	489
9	0	0	0	0	480
10	0	0	0	0	514
11	0	0	0	0	495
12	0	0	0	0	524
13	0	0	0	0	515
14	0	0	0	0	519
15	0	0	0	0	590
0	0	0	0	0	523
1	0	0	0	0	476
2	0	0	0	0	532
3	0	0	0	0	508
4	0	0	0	0	493
5	0	0	0	0	497
6	0	0	0	0	519
7	0	0	0	0	488
8	0	0	0	0	511
9	0	0	0	0	492
10	0	0	0	0	521
11	0	0	0	0	467
12	0	0	0	0	514
13	0	0	0	0	498
14	0	0	0	0	526
15	0	0	0	0	494
0	0	0	0	0	519
1	0	0	0	0	466
2	0	0	0	0	500
3	0	0	0	0	496
4	0	0	0	0	523
5	0	0	0	0	493
6	0	0	0	0	513
7	0	0	0	0	494
8	0	0	0	0	525
9	0	0	0	0	567
10	0	0	0	0	533
11	0	0	0	0	489
12	0	0	0	0	569
13	0	0	0	0	481
14	0	0	0	0	514
15	0	0	0	0	513
0	0	0	0	0	520
1	0	0	0	0	515
2	0	0	0	0	465
3	0	0	0	0	483
4	0	0	0	0	553
5	0	0	0	0	302
6	0	0	0	0	702
7	0	0	0	0	532
8	0	0	0	0	555
9	0	0	0	0	549
10	0	0	0	0	182
11	0	0	0	0	826
12	0	0	0	0	84
13	0	0	0	0	405
14	0	0	0	0	751
15	0	0	0	0	307
0	0	0	0	0	765
1	0	0	0	0	529
2	0	0	0	0	576
3	0	0	0	0	699
4	0	0	0	0	193
5	0	0	0	0	610
6	0	0	0	0	728
7	0	0	0	0	0
8	0	0	0	0	685
9	0	0	0	0	318
10	0	0	0	0	1022
11	0	0	0	0	0
12	0	0	0	0	327
13	0	0	0	0	824
14	0	0	0	0	0
15	0	0	0	0	848
0	0	0	0	0	0
1	0	0	0	0	590
2	0	0	0	0	88
3	0	0	0	0	1022
4	0	0	0	0	0
5	0	0	0	0	323
6	0	0	0	0	770
7	0	0	0	0	646
8	0	0	0	0	285
9	0	0	0	0	1011
10	0	0	0	0	389
11	0	0	0	0	552
12	0	0	0	0	263
13	0	0	0	0	1022
14	0	0	0	0	510
15	0	0	0	0	536
0	0	0	0	0	121
1	0	0	0	0	439
2	0	0	0	0	927
3	0	0	0	0	397
4	0	0	0	0	0
5	0	0	0	0	606
6	0	0	0	0	1022
7	0	0	0	0	445
8	0	0	0	0	638
9	0	0	0	0	689
10	0	0	0	0	633
11	0	0	0	0	1022
12	0	0	0	0	768
13	0	0	0	0	871
14	0	0	0	0	0
15	0	0	0	0	227
0	0	0	0	0	769
1	0	0	0	0	412
2	0	0	0	0	336
3	0	0	0	0	321
4	0	0	0	0	926
5	0	0	0	0	0
6	0	0	0	0	0
7	0	0	0	0	718
8	0	0	0	0	740
9	0	0	0	0	298
10	0	0	0	0	999
11	0	0	0	0	298
12	0	0	0	0	445
13	0	0	0	0	697
14	0	0	0	0	541
15	0	0	0	0	310
0	0	0	0	0	281
1	0	0	0	0	404
2	0	0	0	0	310
3	0	0	0	0	723
4	0	0	0	0	480
5	0	0	0	0	508
6	0	0	0	0	68
7	0	0	0	0	586
8	0	0	0	0	851
9	0	0	0	0	427
10	0	0	0	0	595
11	0	0	0	0	410
12	0	0	0	0	969
13	0	0	0	0	195
14	0	0	0	0	81
15	0	0	0	0	573
0	0	0	0	0	536
1	0	0	0	0	504
2	0	0	0	0	279
3	0	0	0	0	459
4	0	0	0	0	451
5	0	0	0	0	649
6	0	0	0	0	519
7	0	0	0	0	591
8	0	0	0	0	556
9	0	0	0	0	443
10	0	0	0	0	558
11	0	0	0	0	523
12	0	0	0	0	492
13	0	0	0	0	527
14	0	0	0	0	616
15	0	0	0	0	534
0	0	0	0	0	500
1	0	0	0	0	416
2	0	0	0	0	563
3	0	0	0	0	452
4	0	0	0	0	475
5	0	0	0	0	620
6	0	0	0	0	519
7	0	0	0	0	454
8	0	0	0	0	500
9	0	0	0	0	482
10	0	0	0	0	497
11	0	0	0	0	509
12	0	0	0	0	533
13	0	0	0	0	506
14	0	0	0	0	521
15	0	0	0	0	509
0	0	0	0	0	497
1	0	0	0	0	520
2	0	0	0	0	508
3	0	0	0	0	548
4	0	0	0	0	497
5	0	0	0	0	487
6	0	0	0	0	510
7	0	0	0	0	494
8	0	0	0	0	520
9	0	0	0	0	487
10	0	0	0	0	606
11	0	0	0	0	471
12	0	0	0	0	498
13	0	0	0	0	541
14	0	0	0	0	559
15	0	0	0	0	507
0	0	0	0	0	515
1	0	0	0	0	465
2	0	0	0	0	610
3	0	0	0	0	506
4	0	0	0	0	496
5	0	0	0	0	520
6	0	0	0	0	485
7	0	0	0	0	557
8	0	0	0	0	527
9	0	0	0	0	520
10	0	0	0	0	510
11	0	0	0	0	480
12	0	0	0	0	516
13	0	0	0	0	516
14	0	0	0	0	548
15	0	0	0	0	511
0	0	0	0	0	480
1	0	0	0	0	520
2	0	0	0	0	578
3	0	0	0	0	492
4	0	0	0	0	498
5	0	0	0	0	526
6	0	0	0	0	511
7	0	0	0	0	478
8	0	0	0	0	514
9	0	0	0	0	509
10	0	0	0	0	511
11	0	0	0	0	524
12	0	0	0	0	516
13	0	0	0	0	501
14	0	0	0	0	513
15	0	0	0	0	533
0	0	0	0	0	528
1	0	0	0	0	449
2	0	0	0	0	512
3	0	0	0	0	527
4	0	0	0	0	530
5	0	0	0	0	511
6	0	0	0	0	560
7	0	0	0	0	472
8	0	0	0	0	530
9	0	0	0	0	480
10	0	0	0	0	554
11	0	0	0	0	496
12	0	0	0	0	539
13	0	0	0	0	504
14	0	0	0	0	497
15	0	0	0	0	512
0	0	0	0	0	496
1	0	0	0	0	538
2	0	0	0	0	514
3	0	0	0	0	477
4	0	0	0	0	521
5	0	0	0	0	481
6	0	0	0	0	526
7	0	0	0	0	521
8	0	0	0	0	536
9	0	0	0	0	486
10	0	0	0	0	532
11	0	0	0	0	497
12	0	0	0	0	527
13	0	0	0	0	510
14	0	0	0	0	532
15	0	0	0	0	502
0	0	0	0	0	524
1	0	0	0	0	478
2	0	0	0	0	554
3	0	0	0	0	489
4	0	0	0	0	440
5	0	0	0	0	451
6	0	0	0	0	508
7	0	0	0	0	489
8	0	0	0	0	597
9	0	0	0	0	501
10	0	0	0	0	500
11	0	0	0	0	529
12	0	0	0	0	542
13	0	0	0	0	491
14	0	0	0	0	540
15	0	0	0	0	508
0	0	0	0	0	512
1	0	0	0	0	530
2	0	0	0	0	518
3	0	0	0	0	492
4	0	0	0	0	560
5	0	0	0	0	538
6	0	0	0	0	577
7	0	0	0	0	518
8	0	0	0	0	519
9	0	0	0	0	440
10	0	0	0	0	521
11	0	0	0	0	491
12	0	0	0	0	551
13	0	0	0	0	491
14	0	0	0	0	540
15	0	0	0	0	496
0	0	0	0	0	557
1	0	0	0	0	493
2	0	0	0	0	541
3	0	0	0	0	472
4	0	0	0	0	550
5	0	0	0	0	495
6	0	0	0	0	537
7	0	0	0	0	474
8	0	0	0	0	542
9	0	0	0	0	501
10	0	0	0	0	537
11	0	0	0	0	441
12	0	0	0	0	529
13	0	0	0	0	486
14	0	0	0	0	533
15	0	0	0	0	497
0	0	0	0	0	548
1	0	0	0	0	569
2	0	0	0	0	555
3	0	0	0	0	501
4	0	0	0	0	533
5	0	0	0	0	516
6	0	0	0	0	583
7	0	0	0	0	511
8	0	0	0	0	540
9	0	0	0	0	483
10	0	0	0	0	534
11	0	0	0	0	484
12	0	0	0	0	559
13	0	0	0	0	512
14	0	0	0	0	556
15	0	0	0	0	476
0	0	0	0	0	588
1	0	0	0	0	480
2	0	0	0	0	572
3	0	0	0	0	487
4	0	0	0	0	540
5	0	0	0	0	494
6	0	0	0	0	527
7	0	0	0	0	478
8	0	0	0	0	526
9	0	0	0	0	480
10	0	0	0	0	531
11	0	0	0	0	480
12	0	0	0	0	531
13	0	0	0	0	489
14	0	0	0	0	539
15	0	0	0	0	491
0	0	0	0	0	524
1	0	0	0	0	531
2	0	0	0	0	521
3	0	0	0	0	489
4	0	0	0	0	540
5	0	0	0	0	454
6	0	0	0	0	588
7	0	0	0	0	493
8	0	0	0	0	521
9	0	0	0	0	467
10	0	0	0	0	553
11	0	0	0	0	480
12	0	0	0	0	521
13	0	0	0	0	485
14	0	0	0	0	608
15	0	0	0	0	487
0	0	0	0	0	535
1	0	0	0	0	445
2	0	0	0	0	536
3	0	0	0	0	472
4	0	0	0	0	573
5	0	0	0	0	480
6	0	0	0	0	549
7	0	0	0	0	496
8	0	0	0	0	539
9	0	0	0	0	488
10	0	0	0	0	551
11	0	0	0	0	506
12	0	0	0	0	537
13	0	0	0	0	435
14	0	0	0	0	554
15	0	0	0	0	500
0	0	0	0	0	527
1	0	0	0	0	472
2	0	0	0	0	540
3	0	0	0	0	475
4	0	0	0	0	536
5	0	0	0	0	464
6	0	0	0	0	566
7	0	0	0	0	457
8	0	0	0	0	565
9	0	0	0	0	460
10	0	0	0	0	551
11	0	0	0	0	471
12	0	0	0	0	538
13	0	0	0	0	444
14	0	0	0	0	556
15	0	0	0	0	345
0	0	0	0	0	532
1	0	0	0	0	482
2	0	0	0	0	583
3	0	0	0	0	481
4	0	0	0	0	547
5	0	0	0	0	479
6	0	0	0	0	522
7	0	0	0	0	453
8	0	0	0	0	528
9	0	0	0	0	472
10	0	0	0	0	547
11	0	0	0	0	467
12	0	0	0	0	550
13	0	0	0	0	476
14	0	0	0	0	579
15	0	0	0	0	530
0	0	0	0	0	529
1	0	0	0	0	506
2	0	0	0	0	545
3	0	0	0	0	472
4	0	0	0	0	552
5	0	0	0	0	466
6	0	0	0	0	579
7	0	0	0	0	467
8	0	0	0	0	550
9	0	0	0	0	466
10	0	0	0	0	545
11	0	0	0	0	477
12	0	0	0	0	548
13	0	0	0	0	475
14	0	0	0	0	540
15	0	0	0	0	444
0	0	0	0	0	541
1	0	0	0	0	462
2	0	0	0	0	558
3	0	0	0	0	461
4	0	0	0	0	563
5	0	0	0	0	462
6	0	0	0	0	540
7	0	0	0	0	446
8	0	0	0	0	596
9	0	0	0	0	470
10	0	0	0	0	557
11	0	0	0	0	466
12	0	0	0	0	526
13	0	0	0	0	484
14	0	0	0	0	583
15	0	0	0	0	465
0	0	0	0	0	525
1	0	0	0	0	583
2	0	0	0	0	425
3	0	0	0	0	618
4	0	0	0	0	566
5	0	0	0	0	246
6	0	0	0	0	838
7	0	0	0	0	343
8	0	0	0	0	530
9	0	0	0	0	578
10	0	0	0	0	469
11	0	0	0	0	814
12	0	0	0	0	221
13	0	0	0	0	506
14	0	0	0	0	828
15	0	0	0	0	177
0	0	0	0	0	1022
1	0	0	0	0	222
2	0	0	0	0	358
3	0	0	0	0	365
4	0	0	0	0	1022
5	0	0	0	0	395
6	0	0	0	0	546
7	0	0	0	0	942
8	0	0	0	0	724
9	0	0	0	0	385
10	0	0	0	0	694
11	0	0	0	0	334
12	0	0	0	0	789
13	0	0	0	0	451
14	0	0	0	0	0
15	0	0	0	0	917
0	0	0	0	0	355
1	0	0	0	0	903
2	0	0	0	0	1022
3	0	0	0	0	233
4	0	0	0	0	1022
5	0	0	0	0	0
6	0	0	0	0	127
7	0	0	0	0	1022
8	0	0	0	0	533
9	0	0	0	0	0
10	0	0	0	0	232
11	0	0	0	0	672
12	0	0	0	0	830
13	0	0	0	0	481
14	0	0	0	0	941
15	0	0	0	0	764
0	0	0	0	0	535
1	0	0	0	0	796
2	0	0	0	0	144
3	0	0	0	0	685
4	0	0	0	0	512
5	0	0	0	0	773
6	0	0	0	0	1016
7	0	0	0	0	300
8	0	0	0	0	916
9	0	0	0	0	535
10	0	0	0	0	280
11	0	0	0	0	668
12	0	0	0	0	553
13	0	0	0	0	329
14	0	0	0	0	265
15	0	0	0	0	694
0	0	0	0	0	1022
1	0	0	0	0	104
2	0	0	0	0	1022
3	0	0	0	0	260
4	0	0	0	0	0
5	0	0	0	0	499
6	0	0	0	0	165
7	0	0	0	0	271
8	0	0	0	0	227
9	0	0	0	0	382
10	0	0	0	0	560
11	0	0	0	0	133
12	0	0	0	0	284
13	0	0	0	0	646
14	0	0	0	0	452
15	0	0	0	0	841
0	0	0	0	0	910
1	0	0	0	0	170
2	0	0	0	0	255
3	0	0	0	0	17
4	0	0	0	0	296
5	0	0	0	0	745
6	0	0	0	0	520
7	0	0	0	0	496
8	0	0	0	0	499
9	0	0	0	0	528
10	0	0	0	0	88
11	0	0	0	0	627
12	0	0	0	0	560
13	0	0	0	0	376
14	0	0	0	0	506
15	0	0	0	0	476
0	0	0	0	0	572
1	0	0	0	0	461
2	0	0	0	0	505
3	0	0	0	0	513
4	0	0	0	0	614
5	0	0	0	0	460
6	0	0	0	0	615
7	0	0	0	0	483
8	0	0	0	0	540
9	0	0	0	0	458
10	0	0	0	0	551
11	0	0	0	0	456
12	0	0	0	0	518
13	0	0	0	0	480
14	0	0	0	0	518
15	0	0	0	0	446
0	0	0	0	0	592
1	0	0	0	0	490
2	0	0	0	0	504
3	0	0	0	0	471
4	0	0	0	0	612
5	0	0	0	0	441
6	0	0	0	0	584
7	0	0	0	0	491
8	0	0	0	0	519
9	0	0	0	0	472
10	0	0	0	0	531
11	0	0	0	0	465
12	0	0	0	0	535
13	0	0	0	0	485
14	0	0	0	0	513
15	0	0	0	0	519
0	0	0	0	0	546
1	0	0	0	0	478
2	0	0	0	0	535
3	0	0	0	0	511
4	0	0	0	0	520
5	0	0	0	0	484
6	0	0	0	0	561
7	0	0	0	0	460
8	0	0	0	0	544
9	0	0	0	0	490
10	0	0	0	0	546
11	0	0	0	0	511
12	0	0	0	0	505
13	0	0	0	0	512
14	0	0	0	0	530
15	0	0	0	0	467
0	0	0	0	0	511
1	0	0	0	0	480
2	0	0	0	0	540
3	0	0	0	0	487
4	0	0	0	0	514
5	0	0	0	0	516
6	0	0	0	0	522
7	0	0	0	0	475
8	0	0	0	0	607
9	0	0	0	0	455
10	0	0	0	0	527
11	0	0	0	0	521
12	0	0	0	0	538
13	0	0	0	0	475
14	0	0	0	0	581
15	0	0	0	0	465
0	0	0	0	0	572
1	0	0	0	0	469
2	0	0	0	0	553
3	0	0	0	0	491
4	0	0	0	0	527
5	0	0	0	0	555
6	0	0	0	0	528
7	0	0	0	0	441
8	0	0	0	0	535
9	0	0	0	0	477
10	0	0	0	0	514
11	0	0	0	0	524
12	0	0	0	0	522
13	0	0	0	0	472
14	0	0	0	0	578
15	0	0	0	0	472
0	0	0	0	0	521
1	0	0	0	0	511
2	0	0	0	0	539
3	0	0	0	0	489
4	0	0	0	0	531
5	0	0	0	0	484
6	0	0	0	0	527
7	0	0	0	0	493
8	0	0	0	0	532
9	0	0	0	0	463
10	0	0	0	0	533
11	0	0	0	0	491
12	0	0	0	0	539
13	0	0	0	0	512
14	0	0	0	0	538
15	0	0	0	0	506
0	0	0	0	0	540
1	0	0	0	0	515
2	0	0	0	0	516
3	0	0	0	0	478
4	0	0	0	0	532
5	0	0	0	0	504
6	0	0	0	0	561
7	0	0	0	0	492
8	0	0	0	0	527
9	0	0	0	0	444
10	0	0	0	0	590
11	0	0	0	0	475
12	0	0	0	0	538
13	0	0	0	0	495
14	0	0	0	0	530
15	0	0	0	0	515
0	0	0	0	0	527
1	0	0	0	0	488
2	0	0	0	0	555
3	0	0	0	0	457
4	0	0	0	0	524
5	0	0	0	0	473
6	0	0	0	0	542
7	0	0	0	0	503
8	0	0	0	0	541
9	0	0	0	0	461
10	0	0	0	0	583
11	0	0	0	0	471
12	0	0	0	0	532
13	0	0	0	0	487
14	0	0	0	0	544
15	0	0	0	0	491
0	0	0	0	0	540
1	0	0	0	0	485
2	0	0	0	0	564
3	0	0	0	0	486
4	0	0	0	0	535
5	0	0	0	0	481
6	0	0	0	0	535
7	0	0	0	0	484
8	0	0	0	0	535
9	0	0	0	0	510
10	0	0	0	0	492
11	0	0	0	0	541
12	0	0	0	0	537
13	0	0	0	0	476
14	0	0	0	0	543
15	0	0	0	0	484
0	0	0	0	0	537
1	0	0	0	0	465
2	0	0	0	0	550
3	0	0	0	0	474
4	0	0	0	0	554
5	0	0	0	0	487
6	0	0	0	0	544
7	0	0	0	0	483
8	0	0	0	0	543
9	0	0	0	0	472
10	0	0	0	0	553
11	0	0	0	0	502
12	0	0	0	0	529
13	0	0	0	0	483
14	0	0	0	0	543
15	0	0	0	0	489
0	0	0	0	0	550
1	0	0	0	0	496
2	0	0	0	0	569
3	0	0	0	0	480
4	0	0	0	0	537
5	0	0	0	0	491
6	0	0	0	0	544
7	0	0	0	0	505
8	0	0	0	0	539
9	0	0	0	0	478
10	0	0	0	0	467
11	0	0	0	0	468
12	0	0	0	0	543
13	0	0	0	0	459
14	0	0	0	0	540
15	0	0	0	0	464
0	0	0	0	0	540
1	0	0	0	0	563
2	0	0	0	0	507
3	0	0	0	0	478
4	0	0	0	0	551
5	0	0	0	0	488
6	0	0	0	0	505
7	0	0	0	0	508
8	0	0	0	0	513
9	0	0	0	0	474
10	0	0	0	0	540
11	0	0	0	0	462
12	0	0	0	0	572
13	0	0	0	0	505
14	0	0	0	0	554
15	0	0	0	0	425
0	0	0	0	0	555
1	0	0	0	0	406
2	0	0	0	0	528
3	0	0	0	0	486
4	0	0	0	0	546
5	0	0	0	0	481
6	0	0	0	0	416
7	0	0	0	0	473
8	0	0	0	0	528
9	0	0	0	0	555
10	0	0	0	0	543
11	0	0	0	0	485
12	0	0	0	0	533
13	0	0	0	0	517
14	0	0	0	0	563
15	0	0	0	0	475
0	0	0	0	0	541
1	0	0	0	0	493
2	0	0	0	0	537
3	0	0	0	0	469
4	0	0	0	0	519
5	0	0	0	0	463
6	0	0	0	0	542
7	0	0	0	0	481
8	0	0	0	0	556
9	0	0	0	0	490
10	0	0	0	0	579
11	0	0	0	0	491
12	0	0	0	0	557
13	0	0	0	0	508
14	0	0	0	0	530
15	0	0	0	0	477
0	0	0	0	0	583
1	0	0	0	0	480
2	0	0	0	0	535
3	0	0	0	0	463
4	0	0	0	0	562
5	0	0	0	0	522
6	0	0	0	0	529
7	0	0	0	0	489
8	0	0	0	0	537
9	0	0	0	0	503
10	0	0	0	0	523
11	0	0	0	0	530
12	0	0	0	0	524
13	0	0	0	0	474
14	0	0	0	0	523
15	0	0	0	0	507
0	0	0	0	0	540
1	0	0	0	0	454
2	0	0	0	0	491
3	0	0	0	0	482
4	0	0	0	0	530
5	0	0	0	0	485
6	0	0	0	0	533
7	0	0	0	0	482
8	0	0	0	0	503
9	0	0	0	0	569
10	0	0	0	0	540
11	0	0	0	0	471
12	0	0	0	0	582
13	0	0	0	0	503
14	0	0	0	0	577
15	0	0	0	0	496
0	0	0	0	0	599
1	0	0	0	0	449
2	0	0	0	0	535
3	0	0	0	0	451
4	0	0	0	0	587
5	0	0	0	0	482
6	0	0	0	0	539
7	0	0	0	0	490
8	0	0	0	0	569
9	0	0	0	0	596
10	0	0	0	0	531
11	0	0	0	0	496
12	0	0	0	0	535
13	0	0	0	0	472
14	0	0	0	0	531
15	0	0	0	0	487
0	0	0	0	0	541
1	0	0	0	0	555
2	0	0	0	0	603
3	0	0	0	0	472
4	0	0	0	0	553
5	0	0	0	0	453
6	0	0	0	0	540
7	0	0	0	0	488
8	0	0	0	0	583
9	0	0	0	0	479
10	0	0	0	0	639
11	0	0	0	0	473
12	0	0	0	0	509
13	0	0	0	0	460
14	0	0	0	0	528
15	0	0	0	0	540
0	0	0	0	0	521
1	0	0	0	0	475
2	0	0	0	0	569
3	0	0	0	0	576
4	0	0	0	0	546
5	0	0	0	0	483
6	0	0	0	0	543
7	0	0	0	0	480
8	0	0	0	0	462
9	0	0	0	0	663
10	0	0	0	0	395
11	0	0	0	0	492
12	0	0	0	0	386
13	0	0	0	0	572
14	0	0	0	0	593
15	0	0	0	0	0
0	0	0	0	0	1022
1	0	0	0	0	284
2	0	0	0	0	440
3	0	0	0	0	981
4	0	0	0	0	52
5	0	0	0	0	987
6	0	0	0	0	515
7	0	0	0	0	411
8	0	0	0	0	867
9	0	0	0	0	213
10	0	0	0	0	579
11	0	0	0	0	755
12	0	0	0	0	545
13	0	0	0	0	0
14	0	0	0	0	1022
15	0	0	0	0	0
0	0	0	0	0	1022
1	0	0	0	0	291
2	0	0	0	0	1022
3	0	0	0	0	947
4	0	0	0	0	473
5	0	0	0	0	540
6	0	0	0	0	0
7	0	0	0	0	1022
8	0	0	0	0	459
9	0	0	0	0	620
10	0	0	0	0	0
11	0	0	0	0	340
12	0	0	0	0	276
13	0	0	0	0	67
14	0	0	0	0	491
15	0	0	0	0	663
0	0	0	0	0	1022
1	0	0	0	0	378
2	0	0	0	0	644
3	0	0	0	0	304
4	0	0	0	0	215
5	0	0	0	0	403
6	0	0	0	0	903
7	0	0	0	0	136
8	0	0	0	0	1022
9	0	0	0	0	709
10	0	0	0	0	323
11	0	0	0	0	356
12	0	0	0	0	772
13	0	0	0	0	361
14	0	0	0	0	25
15	0	0	0	0	540
0	0	0	0	0	873
1	0	0	0	0	343
2	0	0	0	0	0
3	0	0	0	0	673
4	0	0	0	0	873
5	0	0	0	0	206
6	0	0	0	0	598
7	0	0	0	0	718
8	0	0	0	0	318
9	0	0	0	0	727
10	0	0	0	0	389
11	0	0	0	0	649
12	0	0	0	0	393
13	0	0	0	0	555
14	0	0	0	0	790
15	0	0	0	0	371
0	0	0	0	0	467
1	0	0	0	0	609
2	0	0	0	0	407
3	0	0	0	0	375
4	0	0	0	0	644
5	0	0	0	0	524
6	0	0	0	0	348
7	0	0	0	0	480
8	0	0	0	0	715
9	0	0	0	0	511
10	0	0	0	0	456
11	0	0	0	0	497
12	0	0	0	0	752
13	0	0	0	0	528
14	0	0	0	0	448
15	0	0	0	0	502
0	0	0	0	0	391
1	0	0	0	0	527
2	0	0	0	0	503
3	0	0	0	0	418
4	0	0	0	0	530
5	0	0	0	0	499
6	0	0	0	0	566
7	0	0	0	0	477
8	0	0	0	0	496
9	0	0	0	0	523
10	0	0	0	0	551
11	0	0	0	0	486
12	0	0	0	0	471
13	0	0	0	0	577
14	0	0	0	0	459
15	0	0	0	0	528
0	0	0	0	0	544
1	0	0	0	0	492
2	0	0	0	0	540
3	0	0	0	0	473
4	0	0	0	0	577
5	0	0	0	0	510
6	0	0	0	0	526
7	0	0	0	0	518
8	0	0	0	0	524
9	0	0	0	0	509
10	0	0	0	0	494
11	0	0	0	0	518
12	0	0	0	0	481
13	0	0	0	0	507
14	0	0	0	0	479
15	0	0	0	0	447
0	0	0	0	0	584
1	0	0	0	0	479
2	0	0	0	0	529
3	0	0	0	0	537
4	0	0	0	0	478
5	0	0	0	0	500
6	0	0	0	0	546
7	0	0	0	0	458
8	0	0	0	0	511
9	0	0	0	0	517
10	0	0	0	0	547
11	0	0	0	0	503
12	0	0	0	0	522
13	0	0	0	0	485
14	0	0	0	0	500
15	0	0	0	0	531
0	0	0	0	0	501
1	0	0	0	0	510
2	0	0	0	0	502
3	0	0	0	0	587
4	0	0	0	0	500
5	0	0	0	0	517
6	0	0	0	0	509
7	0	0	0	0	514
8	0	0	0	0	524
9	0	0	0	0	507
10	0	0	0	0	528
11	0	0	0	0	492
12	0	0	0	0	558
13	0	0	0	0	476
14	0	0	0	0	521
15	0	0	0	0	508
0	0	0	0	0	500
1	0	0	0	0	507
2	0	0	0	0	518
3	0	0	0	0	511
4	0	0	0	0	516
5	0	0	0	0	508
6	0	0	0	0	540
7	0	0	0	0	503
8	0	0	0	0	527
9	0	0	0	0	503
10	0	0	0	0	504
11	0	0	0	0	503
12	0	0	0	0	510
13	0	0	0	0	504
14	0	0	0	0	502
15	0	0	0	0	593
0	0	0	0	0	493
1	0	0	0	0	480
2	0	0	0	0	570
3	0	0	0	0	504
4	0	0	0	0	517
5	0	0	0	0	536
6	0	0	0	0	520
7	0	0	0	0	472
8	0	0	0	0	514
9	0	0	0	0	552
10	0	0	0	0	516
11	0	0	0	0	492
12	0	0	0	0	531
13	0	0	0	0	495
14	0	0	0	0	551
15	0	0	0	0	499
0	0	0	0	0	507
1	0	0	0	0	505
2	0	0	0	0	527
3	0	0	0	0	497
4	0	0	0	0	546
5	0	0	0	0	497
6	0	0	0	0	527
7	0	0	0	0	492
8	0	0	0	0	520
9	0	0	0	0	534
10	0	0	0	0	500
11	0	0	0	0	499
12	0	0	0	0	530
13	0	0	0	0	497
14	0	0	0	0	538
15	0	0	0	0	511
0	0	0	0	0	490
1	0	0	0	0	551
2	0	0	0	0	523
3	0	0	0	0	496
4	0	0	0	0	529
5	0	0	0	0	513
6	0	0	0	0	507
7	0	0	0	0	513
8	0	0	0	0	525
9	0	0	0	0	478
10	0	0	0	0	545
11	0	0	0	0	489
12	0	0	0	0	486
13	0	0	0	0	550
14	0	0	0	0	515
15	0	0	0	0	502
0	0	0	0	0	511
1	0	0	0	0	526
2	0	0	0	0	524
3	0	0	0	0	478
4	0	0	0	0	554
5	0	0	0	0	487
6	0	0	0	0	517
7	0	0	0	0	513
8	0	0	0	0	530
9	0	0	0	0	510
10	0	0	0	0	504
11	0	0	0	0	516
12	0	0	0	0	517
13	0	0	0	0	497
14	0	0	0	0	536
15	0	0	0	0	496
0	0	0	0	0	527
1	0	0	0	0	508
2	0	0	0	0	518
3	0	0	0	0	488
4	0	0	0	0	570
5	0	0	0	0	493
6	0	0	0	0	489
7	0	0	0	0	500
8	0	0	0	0	510
9	0	0	0	0	492
10	0	0	0	0	538
11	0	0	0	0	489
12	0	0	0	0	559
13	0	0	0	0	481
14	0	0	0	0	512
15	0	0	0	0	483
0	0	0	0	0	531
1	0	0	0	0	513
2	0	0	0	0	506
3	0	0	0	0	548
4	0	0	0	0	512
5	0	0	0	0	531
6	0	0	0	0	482
7	0	0	0	0	502
8	0	0	0	0	547
9	0	0	0	0	506
10	0	0	0	0	531
11	0	0	0	0	502
12	0	0	0	0	518
13	0	0	0	0	530
14	0	0	0	0	536
15	0	0	0	0	487
0	0	0	0	0	571
1	0	0	0	0	509
2	0	0	0	0	487
3	0	0	0	0	481
4	0	0	0	0	510
5	0	0	0	0	463
6	0	0	0	0	529
7	0	0	0	0	566
8	0	0	0	0	534
9	0	0	0	0	504
10	0	0	0	0	519
11	0	0	0	0	495
12	0	0	0	0	511
13	0	0	0	0	504
14	0	0	0	0	571
15	0	0	0	0	456
0	0	0	0	0	551
1	0	0	0	0	488
2	0	0	0	0	532
3	0	0	0	0	496
4	0	0	0	0	655
5	0	0	0	0	515
6	0	0	0	0	532
7	0	0	0	0	499
8	0	0	0	0	526
9	0	0	0	0	494
10	0	0	0	0	530
11	0	0	0	0	489
12	0	0	0	0	567
13	0	0	0	0	496
14	0	0	0	0	538
15	0	0	0	0	493
0	0	0	0	0	532
1	0	0	0	0	491
2	0	0	0	0	536
3	0	0	0	0	503
4	0	0	0	0	538
5	0	0	0	0	547
6	0	0	0	0	517
7	0	0	0	0	488
8	0	0	0	0	526
9	0	0	0	0	479
10	0	0	0	0	589
11	0	0	0	0	481
12	0	0	0	0	512
13	0	0	0	0	481
14	0	0	0	0	536
15	0	0	0	0	486
0	0	0	0	0	532
1	0	0	0	0	480
2	0	0	0	0	529
3	0	0	0	0	508
4	0	0	0	0	565
5	0	0	0	0	491
6	0	0	0	0	500
7	0	0	0	0	483
8	0	0	0	0	524
9	0	0	0	0	507
10	0	0	0	0	521
11	0	0	0	0	504
12	0	0	0	0	467
13	0	0	0	0	485
14	0	0	0	0	546
15	0	0	0	0	491
0	0	0	0	0	529
1	0	0	0	0	517
2	0	0	0	0	534
3	0	0	0	0	492
4	0	0	0	0	570
5	0	0	0	0	483
6	0	0	0	0	580
7	0	0	0	0	502
8	0	0	0	0	551
9	0	0	0	0	487
10	0	0	0	0	524
11	0	0	0	0	493
12	0	0	0	0	520
13	0	0	0	0	495
14	0	0	0	0	533
15	0	0	0	0	498
0	0	0	0	0	507
1	0	0	0	0	500
2	0	0	0	0	539
3	0	0	0	0	529
4	0	0	0	0	530
5	0	0	0	0	497
6	0	0	0	0	537
7	0	0	0	0	491
8	0	0	0	0	518
9	0	0	0	0	477
10	0	0	0	0	533
11	0	0	0	0	502
12	0	0	0	0	529
13	0	0	0	0	495
14	0	0	0	0	531
15	0	0	0	0	495
0	0	0	0	0	553
1	0	0	0	0	474
2	0	0	0	0	577
3	0	0	0	0	512
4	0	0	0	0	533
5	0	0	0	0	476
6	0	0	0	0	531
7	0	0	0	0	495
8	0	0	0	0	569
9	0	0	0	0	501
10	0	0	0	0	525
11	0	0	0	0	510
12	0	0	0	0	525
13	0	0	0	0	506
14	0	0	0	0	536
15	0	0	0	0	476
0	0	0	0	0	516
1	0	0	0	0	473
2	0	0	0	0	536
3	0	0	0	0	490
4	0	0	0	0	537
5	0	0	0	0	490
6	0	0	0	0	541
7	0	0	0	0	493
8	0	0	0	0	542
9	0	0	0	0	519
10	0	0	0	0	524
11	0	0	0	0	497
12	0	0	0	0	545
13	0	0	0	0	486
14	0	0	0	0	538
15	0	0	0	0	491
0	0	0	0	0	543
1	0	0	0	0	519
2	0	0	0	0	528
3	0	0	0	0	476
4	0	0	0	0	535
5	0	0	0	0	492
6	0	0	0	0	536
7	0	0	0	0	498
8	0	0	0	0	543
9	0	0	0	0	500
10	0	0	0	0	535
11	0	0	0	0	486
12	0	0	0	0	538
13	0	0	0	0	491
14	0	0	0	0	539
15	0	0	0	0	497
0	0	0	0	0	555
1	0	0	0	0	504
2	0	0	0	0	504
3	0	0	0	0	476
4	0	0	0	0	560
5	0	0	0	0	488
6	0	0	0	0	542
7	0	0	0	0	494
8	0	0	0	0	533
9	0	0	0	0	483
10	0	0	0	0	555
11	0	0	0	0	454
12	0	0	0	0	571
13	0	0	0	0	494
14	0	0	0	0	534
15	0	0	0	0	500
0	0	0	0	0	540
1	0	0	0	0	486
2	0	0	0	0	547
3	0	0	0	0	462
4	0	0	0	0	492
5	0	0	0	0	487
6	0	0	0	0	496
7	0	0	0	0	546
8	0	0	0	0	476
9	0	0	0	0	464
10	0	0	0	0	716
11	0	0	0	0	446
12	0	0	0	0	510
13	0	0	0	0	448
14	0	0	0	0	470
15	0	0	0	0	628
0	0	0	0	0	627
1	0	0	0	0	305
2	0	0	0	0	801
3	0	0	0	0	418
4	0	0	0	0	468
5	0	0	0	0	643
6	0	0	0	0	276
7	0	0	0	0	723
8	0	0	0	0	569
9	0	0	0	0	377
10	0	0	0	0	523
11	0	0	0	0	558
12	0	0	0	0	457
13	0	0	0	0	730
14	0	0	0	0	260
15	0	0	0	0	812
0	0	0	0	0	283
1	0	0	0	0	303
2	0	0	0	0	732
3	0	0	0	0	241
4	0	0	0	0	699
5	0	0	0	0	375
6	0	0	0	0	421
7	0	0	0	0	908
8	0	0	0	0	469
9	0	0	0	0	634
10	0	0	0	0	639
11	0	0	0	0	189
12	0	0	0	0	658
13	0	0	0	0	466
14	0	0	0	0	1022
15	0	0	0	0	492
0	0	0	0	0	673
1	0	0	0	0	721
2	0	0	0	0	553
3	0	0	0	0	579
4	0	0	0	0	684
5	0	0	0	0	730
6	0	0	0	0	348
7	0	0	0	0	519
8	0	0	0	0	314
9	0	0	0	0	477
10	0	0	0	0	739
11	0	0	0	0	36
12	0	0	0	0	1022
13	0	0	0	0	174
14	0	0	0	0	1022
15	0	0	0	0	380
0	0	0	0	0	268
1	0	0	0	0	928
2	0	0	0	0	71
3	0	0	0	0	143
4	0	0	0	0	1022
5	0	0	0	0	1022
6	0	0	0	0	604
7	0	0	0	0	625
8	0	0	0	0	640
9	0	0	0	0	610
10	0	0	0	0	1022
11	0	0	0	0	462
12	0	0	0	0	720
13	0	0	0	0	453
14	0	0	0	0	0
15	0	0	0	0	262
0	0	0	0	0	556
1	0	0	0	0	505
2	0	0	0	0	738
3	0	0	0	0	1022
4	0	0	0	0	709
5	0	0	0	0	755
6	0	0	0	0	322
7	0	0	0	0	279
8	0	0	0	0	831
9	0	0	0	0	849
10	0	0	0	0	461
11	0	0	0	0	539
12	0	0	0	0	329
13	0	0	0	0	1022
14	0	0	0	0	0
15	0	0	0	0	44
0	0	0	0	0	190
1	0	0	0	0	587
2	0	0	0	0	937
3	0	0	0	0	272
4	0	0	0	0	343
5	0	0	0	0	473
6	0	0	0	0	825
7	0	0	0	0	1022
8	0	0	0	0	172
9	0	0	0	0	896
10	0	0	0	0	593
11	0	0	0	0	1022
12	0	0	0	0	568
13	0	0	0	0	295
14	0	0	0	0	620
15	0	0	0	0	374
0	0	0	0	0	1022
1	0	0	0	0	292
2	0	0	0	0	717
3	0	0	0	0	184
4	0	0	0	0	539
5	0	0	0	0	495
6	0	0	0	0	561
7	0	0	0	0	410
8	0	0	0	0	388
9	0	0	0	0	607
10	0	0	0	0	754
11	0	0	0	0	507
12	0	0	0	0	511
13	0	0	0	0	635
14	0	0	0	0	458
15	0	0	0	0	524
0	0	0	0	0	645
1	0	0	0	0	452
2	0	0	0	0	418
3	0	0	0	0	524
4	0	0	0	0	475
5	0	0	0	0	501
6	0	0	0	0	547
7	0	0	0	0	490
8	0	0	0	0	516
9	0	0	0	0	434
10	0	0	0	0	476
11	0	0	0	0	494
12	0	0	0	0	475
13	0	0	0	0	520
14	0	0	0	0	498
15	0	0	0	0	537
0	0	0	0	0	495
1	0	0	0	0	527
2	0	0	0	0	494
3	0	0	0	0	534
4	0	0	0	0	509
5	0	0	0	0	529
6	0	0	0	0	471
7	0	0	0	0	541
8	0	0	0	0	504
9	0	0	0	0	544
10	0	0	0	0	526
11	0	0	0	0	494
12	0	0	0	0	534
13	0	0	0	0	466
14	0	0	0	0	618
15	0	0	0	0	492
0	0	0	0	0	513
1	0	0	0	0	528
2	0	0	0	0	521
3	0	0	0	0	527
4	0	0	0	0	496
5	0	0	0	0	544
6	0	0	0	0	500
7	0	0	0	0	512
8	0	0	0	0	556
9	0	0	0	0	503
10	0	0	0	0	497
11	0	0	0	0	557
12	0	0	0	0	500
13	0	0	0	0	475
14	0	0	0	0	564
15	0	0	0	0	490
0	0	0	0	0	513
1	0	0	0	0	509
2	0	0	0	0	512
3	0	0	0	0	516
4	0	0	0	0	511
5	0	0	0	0	479
6	0	0	0	0	565
7	0	0	0	0	477
8	0	0	0	0	568
9	0	0	0	0	489
10	0	0	0	0	512
11	0	0	0	0	508
12	0	0	0	0	517
13	0	0	0	0	507
14	0	0	0	0	619
15	0	0	0	0	478
0	0	0	0	0	499
1	0	0	0	0	575
2	0	0	0	0	525
3	0	0	0	0	504
4	0	0	0	0	525
5	0	0	0	0	523
6	0	0	0	0	537
7	0	0	0	0	488
8	0	0	0	0	536
9	0	0	0	0	494
10	0	0	0	0	519
11	0	0	0	0	501
12	0	0	0	0	554
13	0	0	0	0	479
14	0	0	0	0	577
15	0	0	0	0	472
0	0	0	0	0	602
1	0	0	0	0	478
2	0	0	0	0	510
3	0	0	0	0	512
4	0	0	0	0	519
5	0	0	0	0	511
6	0	0	0	0	495
7	0	0	0	0	547
8	0	0	0	0	523
9	0	0	0	0	468
10	0	0	0	0	553
11	0	0	0	0	491
12	0	0	0	0	518
13	0	0	0	0	508
14	0	0	0	0	510
15	0	0	0	0	490
0	0	0	0	0	544
1	0	0	0	0	511
2	0	0	0	0	513
3	0	0	0	0	535
4	0	0	0	0	508
5	0	0	0	0	508
6	0	0	0	0	489
7	0	0	0	0	515
8	0	0	0	0	511
9	0	0	0	0	494
10	0	0	0	0	546
11	0	0	0	0	499
12	0	0	0	0	518
13	0	0	0	0	494
14	0	0	0	0	559
15	0	0	0	0	496
0	0	0	0	0	522
1	0	0	0	0	510
2	0	0	0	0	514
3	0	0	0	0	506
4	0	0	0	0	517
5	0	0	0	0	500
6	0	0	0	0	512
7	0	0	0	0	479
8	0	0	0	0	516
9	0	0	0	0	504
10	0	0	0	0	521
11	0	0	0	0	506
12	0	0	0	0	513
13	0	0	0	0	486
14	0	0	0	0	505
15	0	0	0	0	479
0	0	0	0	0	505
1	0	0	0	0	526
2	0	0	0	0	535
3	0	0	0	0	508
4	0	0	0	0	515
5	0	0	0	0	496
6	0	0	0	0	537
7	0	0	0	0	491
8	0	0	0	0	516
9	0	0	0	0	512
10	0	0	0	0	530
11	0	0	0	0	511
12	0	0	0	0	510
13	0	0	0	0	515
14	0	0	0	0	516
15	0	0	0	0	507
0	0	0	0	0	505
1	0	0	0	0	500
2	0	0	0	0	506
3	0	0	0	0	488
4	0	0	0	0	512
5	0	0	0	0	510
6	0	0	0	0	531
7	0	0	0	0	502
8	0	0	0	0	520
9	0	0	0	0	507
10	0	0	0	0	533
11	0	0	0	0	514
12	0	0	0	0	498
13	0	0	0	0	500
14	0	0	0	0	536
15	0	0	0	0	518
0	0	0	0	0	534
1	0	0	0	0	470
2	0	0	0	0	524
3	0	0	0	0	519
4	0	0	0	0	516
5	0	0	0	0	504
6	0	0	0	0	510
7	0	0	0	0	498
8	0	0	0	0	521
9	0	0	0	0	490
10	0	0	0	0	519
11	0	0	0	0	500
12	0	0	0	0	526
13	0	0	0	0	563
14	0	0	0	0	499
15	0	0	0	0	508
0	0	0	0	0	518
1	0	0	0	0	504
2	0	0	0	0	518
3	0	0	0	0	512
4	0	0	0	0	513
5	0	0	0	0	505
6	0	0	0	0	521
7	0	0	0	0	532
8	0	0	0	0	539
9	0	0	0	0	504
10	0	0	0	0	526
11	0	0	0	0	498
12	0	0	0	0	522
13	0	0	0	0	493
14	0	0	0	0	558
15	0	0	0	0	489
0	0	0	0	0	505
1	0	0	0	0	518
2	0	0	0	0	508
3	0	0	0	0	505
4	0	0	0	0	502
5	0	0	0	0	483
6	0	0	0	0	549
7	0	0	0	0	548
8	0	0	0	0	538
9	0	0	0	0	504
10	0	0	0	0	525
11	0	0	0	0	508
12	0	0	0	0	523
13	0	0	0	0	518
14	0	0	0	0	531
15	0	0	0	0	512
0	0	0	0	0	505
1	0	0	0	0	507
2	0	0	0	0	516
3	0	0	0	0	504
4	0	0	0	0	512
5	0	0	0	0	519
6	0	0	0	0	516
7	0	0	0	0	669
8	0	0	0	0	521
9	0	0	0	0	502
10	0	0	0	0	518
11	0	0	0	0	511
12	0	0	0	0	504
13	0	0	0	0	499
14	0	0	0	0	508
15	0	0	0	0	503
0	0	0	0	0	495
1	0	0	0	0	497
2	0	0	0	0	471
3	0	0	0	0	505
4	0	0	0	0	481
5	0	0	0	0	512
6	0	0	0	0	648
7	0	0	0	0	403
8	0	0	0	0	531
9	0	0	0	0	382
10	0	0	0	0	416
11	0	0	0	0	614
12	0	0	0	0	540
13	0	0	0	0	465
14	0	0	0	0	414
15	0	0	0	0	548
0	0	0	0	0	612
1	0	0	0	0	486
2	0	0	0	0	539
3	0	0	0	0	335
4	0	0	0	0	512
5	0	0	0	0	622
6	0	0	0	0	373
7	0	0	0	0	639
8	0	0	0	0	396
9	0	0	0	0	280
10	0	0	0	0	608
11	0	0	0	0	470
12	0	0	0	0	498
13	0	0	0	0	875
14	0	0	0	0	232
15	0	0	0	0	763
0	0	0	0	0	536
1	0	0	0	0	327
2	0	0	0	0	682
3	0	0	0	0	664
4	0	0	0	0	164
5	0	0	0	0	567
6	0	0	0	0	369
7	0	0	0	0	647
8	0	0	0	0	688
9	0	0	0	0	65
10	0	0	0	0	942
11	0	0	0	0	321
12	0	0	0	0	829
13	0	0	0	0	236
14	0	0	0	0	733
15	0	0	0	0	384
0	0	0	0	0	459
1	0	0	0	0	642
2	0	0	0	0	553
3	0	0	0	0	378
4	0	0	0	0	671
5	0	0	0	0	1012
6	0	0	0	0	585
7	0	0	0	0	271
8	0	0	0	0	699
9	0	0	0	0	504
10	0	0	0	0	256
11	0	0	0	0	914
12	0	0	0	0	310
13	0	0	0	0	451
14	0	0	0	0	958
15	0	0	0	0	84
0	0	0	0	0	402
1	0	0	0	0	934
2	0	0	0	0	148
3	0	0	0	0	248
4	0	0	0	0	608
5	0	0	0	0	1007
6	0	0	0	0	799
7	0	0	0	0	432
8	0	0	0	0	481
9	0	0	0	0	594
10	0	0	0	0	662
11	0	0	0	0	1022
12	0	0	0	0	353
13	0	0	0	0	346
14	0	0	0	0	803
15	0	0	0	0	478
0	0	0	0	0	1022
1	0	0	0	0	809
2	0	0	0	0	0
3	0	0	0	0	413
4	0	0	0	0	116
5	0	0	0	0	0
6	0	0	0	0	450
7	0	0	0	0	707
8	0	0	0	0	911
9	0	0	0	0	80
10	0	0	0	0	748
11	0	0	0	0	263
12	0	0	0	0	564
13	0	0	0	0	641
14	0	0	0	0	640
15	0	0	0	0	447
0	0	0	0	0	441
1	0	0	0	0	475
2	0	0	0	0	222
3	0	0	0	0	610
4	0	0	0	0	974
5	0	0	0	0	612
6	0	0	0	0	60
7	0	0	0	0	317
8	0	0	0	0	963
9	0	0	0	0	308
10	0	0	0	0	728
11	0	0	0	0	649
12	0	0	0	0	302
13	0	0	0	0	912
14	0	0	0	0	437
15	0	0	0	0	499
0	0	0	0	0	606
1	0	0	0	0	454
2	0	0	0	0	7
3	0	0	0	0	731
4	0	0	0	0	954
5	0	0	0	0	407
6	0	0	0	0	471
7	0	0	0	0	211
8	0	0	0	0	646
9	0	0	0	0	635
10	0	0	0	0	195
11	0	0	0	0	496
12	0	0	0	0	405
13	0	0	0	0	497
14	0	0	0	0	575
15	0	0	0	0	533
0	0	0	0	0	453
1	0	0	0	0	896
2	0	0	0	0	793
3	0	0	0	0	479
4	0	0	0	0	790
5	0	0	0	0	448
6	0	0	0	0	286
7	0	0	0	0	0
8	0	0	0	0	1022
9	0	0	0	0	178
10	0	0	0	0	212
11	0	0	0	0	428
12	0	0	0	0	213
13	0	0	0	0	448
14	0	0	0	0	475
15	0	0	0	0	557
0	0	0	0	0	779
1	0	0	0	0	389
2	0	0	0	0	710
3	0	0	0	0	467
4	0	0	0	0	428
5	0	0	0	0	177
6	0	0	0	0	755
7	0	0	0	0	627
8	0	0	0	0	483
9	0	0	0	0	576
10	0	0	0	0	497
11	0	0	0	0	516
12	0	0	0	0	688
13	0	0	0	0	415
14	0	0	0	0	627
15	0	0	0	0	484
0	0	0	0	0	316
1	0	0	0	0	508
2	0	0	0	0	506
3	0	0	0	0	483
4	0	0	0	0	542
5	0	0	0	0	543
6	0	0	0	0	493
7	0	0	0	0	507
8	0	0	0	0	639
9	0	0	0	0	518
10	0	0	0	0	485
11	0	0	0	0	516
12	0	0	0	0	526
13	0	0	0	0	499
14	0	0	0	0	507
15	0	0	0	0	546
0	0	0	0	0	524
1	0	0	0	0	484
2	0	0	0	0	547
3	0	0	0	0	522
4	0	0	0	0	499
5	0	0	0	0	527
6	0	0	0	0	509
7	0	0	0	0	492
8	0	0	0	0	641
9	0	0	0	0	502
10	0	0	0	0	500
11	0	0	0	0	552
12	0	0	0	0	538
13	0	0	0	0	524
14	0	0	0	0	465
15	0	0	0	0	545
0	0	0	0	0	449
1	0	0	0	0	587
2	0	0	0	0	512
3	0	0	0	0	526
4	0	0	0	0	524
5	0	0	0	0	474
6	0	0	0	0	516
7	0	0	0	0	483
8	0	0	0	0	526
9	0	0	0	0	524
10	0	0	0	0	513
11	0	0	0	0	508
12	0	0	0	0	511
13	0	0	0	0	523
14	0	0	0	0	439
15	0	0	0	0	525
0	0	0	0	0	484
1	0	0	0	0	547
2	0	0	0	0	526
3	0	0	0	0	544
4	0	0	0	0	457
5	0	0	0	0	593
6	0	0	0	0	478
7	0	0	0	0	515
8	0	0	0	0	496
9	0	0	0	0	521
10	0	0	0	0	499
11	0	0	0	0	522
12	0	0	0	0	494
13	0	0	0	0	502
14	0	0	0	0	465
15	0	0	0	0	564
0	0	0	0	0	504
1	0	0	0	0	513
2	0	0	0	0	505
3	0	0	0	0	529
4	0	0	0	0	519
5	0	0	0	0	558
6	0	0	0	0	516
7	0	0	0	0	508
8	0	0	0	0	521
9	0	0	0	0	517
10	0	0	0	0	509
11	0	0	0	0	527
12	0	0	0	0	499
13	0	0	0	0	537
14	0	0	0	0	485
15	0	0	0	0	551
0	0	0	0	0	506
1	0	0	0	0	516
2	0	0	0	0	498
3	0	0	0	0	521
4	0	0	0	0	499
5	0	0	0	0	512
6	0	0	0	0	530
7	0	0	0	0	516
8	0	0	0	0	483
9	0	0	0	0	523
10	0	0	0	0	506
11	0	0	0	0	531
12	0	0	0	0	510
13	0	0	0	0	541
14	0	0	0	0	489
15	0	0	0	0	538
0	0	0	0	0	543
1	0	0	0	0	504
2	0	0	0	0	490
3	0	0	0	0	521
4	0	0	0	0	497
5	0	0	0	0	519
6	0	0	0	0	495
7	0	0	0	0	550
8	0	0	0	0	493
9	0	0	0	0	529
10	0	0	0	0	518
11	0	0	0	0	527
12	0	0	0	0	494
13	0	0	0	0	540
14	0	0	0	0	512
15	0	0	0	0	527
0	0	0	0	0	489
1	0	0	0	0	521
2	0	0	0	0	501
3	0	0	0	0	532
4	0	0	0	0	487
5	0	0	0	0	514
6	0	0	0	0	543
7	0	0	0	0	535
8	0	0	0	0	527
9	0	0	0	0	520
10	0	0	0	0	472
11	0	0	0	0	518
12	0	0	0	0	494
13	0	0	0	0	595
14	0	0	0	0	482
15	0	0	0	0	516
0	0	0	0	0	535
1	0	0	0	0	537
2	0	0	0	0	500
3	0	0	0	0	524
4	0	0	0	0	579
5	0	0	0	0	516
6	0	0	0	0	508
7	0	0	0	0	536
8	0	0	0	0	480
9	0	0	0	0	529
10	0	0	0	0	496
11	0	0	0	0	502
12	0	0	0	0	481
13	0	0	0	0	555
14	0	0	0	0	435
15	0	0	0	0	538
0	0	0	0	0	557
1	0	0	0	0	521
2	0	0	0	0	493
3	0	0	0	0	544
4	0	0	0	0	495
5	0	0	0	0	499
6	0	0	0	0	496
7	0	0	0	0	551
8	0	0	0	0	449
9	0	0	0	0	531
10	0	0	0	0	498
11	0	0	0	0	534
12	0	0	0	0	489
13	0	0	0	0	532
14	0	0	0	0	471
15	0	0	0	0	571
0	0	0	0	0	492
1	0	0	0	0	525
2	0	0	0	0	544
3	0	0	0	0	543
4	0	0	0	0	486
5	0	0	0	0	570
6	0	0	0	0	503
7	0	0	0	0	551
8	0	0	0	0	475
9	0	0	0	0	531
10	0	0	0	0	487
11	0	0	0	0	540
12	0	0	0	0	496
13	0	0	0	0	587
14	0	0	0	0	465
15	0	0	0	0	561
0	0	0	0	0	452
1	0	0	0	0	531
2	0	0	0	0	495
3	0	0	0	0	561
4	0	0	0	0	504
5	0	0	0	0	571
6	0	0	0	0	504
7	0	0	0	0	527
8	0	0	0	0	469
9	0	0	0	0	526
10	0	0	0	0	494
11	0	0	0	0	527
12	0	0	0	0	488
13	0	0	0	0	538
14	0	0	0	0	475
15	0	0	0	0	514
0	0	0	0	0	476
1	0	0	0	0	542
2	0	0	0	0	476
3	0	0	0	0	543
4	0	0	0	0	511
5	0	0	0	0	548
6	0	0	0	0	449
7	0	0	0	0	523
8	0	0	0	0	487
9	0	0	0	0	544
10	0	0	0	0	484
11	0	0	0	0	545
12	0	0	0	0	496
13	0	0	0	0	559
14	0	0	0	0	466
15	0	0	0	0	540
0	0	0	0	0	467
1	0	0	0	0	540
2	0	0	0	0	488
3	0	0	0	0	535
4	0	0	0	0	502
5	0	0	0	0	551
6	0	0	0	0	520
7	0	0	0	0	548
8	0	0	0	0	467
9	0	0	0	0	542
10	0	0	0	0	470
11	0	0	0	0	540
12	0	0	0	0	401
13	0	0	0	0	551
14	0	0	0	0	472
15	0	0	0	0	608
0	0	0	0	0	472
1	0	0	0	0	550
2	0	0	0	0	479
3	0	0	0	0	559
4	0	0	0	0	482
5	0	0	0	0	598
6	0	0	0	0	473
7	0	0	0	0	575
8	0	0	0	0	464
9	0	0	0	0	551
10	0	0	0	0	468
11	0	0	0	0	551
12	0	0	0	0	468
13	0	0	0	0	565
14	0	0	0	0	477
15	0	0	0	0	567
0	0	0	0	0	458
1	0	0	0	0	551
2	0	0	0	0	460
3	0	0	0	0	548
4	0	0	0	0	472
5	0	0	0	0	578
6	0	0	0	0	492
7	0	0	0	0	520
8	0	0	0	0	473
9	0	0	0	0	556
10	0	0	0	0	427
11	0	0	0	0	613
12	0	0	0	0	485
13	0	0	0	0	534
14	0	0	0	0	554
15	0	0	0	0	554
0	0	0	0	0	421
1	0	0	0	0	515
2	0	0	0	0	390
3	0	0	0	0	630
4	0	0	0	0	436
5	0	0	0	0	505
6	0	0	0	0	542
7	0	0	0	0	516
8	0	0	0	0	537
9	0	0	0	0	526
10	0	0	0	0	458
11	0	0	0	0	559
12	0	0	0	0	396
13	0	0	0	0	608
14	0	0	0	0	470
15	0	0	0	0	550
0	0	0	0	0	427
1	0	0	0	0	533
2	0	0	0	0	523
3	0	0	0	0	547
4	0	0	0	0	419
5	0	0	0	0	723
6	0	0	0	0	359
7	0	0	0	0	598
8	0	0	0	0	394
9	0	0	0	0	563
10	0	0	0	0	486
11	0	0	0	0	553
12	0	0	0	0	398
13	0	0	0	0	566
14	0	0	0	0	449
15	0	0	0	0	630
0	0	0	0	0	371
1	0	0	0	0	612
2	0	0	0	0	547
3	0	0	0	0	818
4	0	0	0	0	496
5	0	0	0	0	547
6	0	0	0	0	448
7	0	0	0	0	375
8	0	0	0	0	583
9	0	0	0	0	233
10	0	0	0	0	626
11	0	0	0	0	444
12	0	0	0	0	421
13	0	0	0	0	439
14	0	0	0	0	527
15	0	0	0	0	635
0	0	0	0	0	566
1	0	0	0	0	44
2	0	0	0	0	656
3	0	0	0	0	208
4	0	0	0	0	655
5	0	0	0	0	632
6	0	0	0	0	733
7	0	0	0	0	404
8	0	0	0	0	344
9	0	0	0	0	630
10	0	0	0	0	472
11	0	0	0	0	537
12	0	0	0	0	819
13	0	0	0	0	260
14	0	0	0	0	1022
15	0	0	0	0	704
0	0	0	0	0	29
1	0	0	0	0	514
2	0	0	0	0	0
3	0	0	0	0	728
4	0	0	0	0	793
5	0	0	0	0	0
6	0	0	0	0	1018
7	0	0	0	0	0
8	0	0	0	0	1022
9	0	0	0	0	49
10	0	0	0	0	0
11	0	0	0	0	639
12	0	0	0	0	99
13	0	0	0	0	445
14	0	0	0	0	657
15	0	0	0	0	825
0	0	0	0	0	0
1	0	0	0	0	0
2	0	0	0	0	172
3	0	0	0	0	905
4	0	0	0	0	0
5	0	0	0	0	414
6	0	0	0	0	868
7	0	0	0	0	897
8	0	0	0	0	619
9	0	0	0	0	92
10	0	0	0	0	213
11	0	0	0	0	30
12	0	0	0	0	349
13	0	0	0	0	908
14	0	0	0	0	376
15	0	0	0	0	655
0	0	0	0	0	275
1	0	0	0	0	1022
2	0	0	0	0	408
3	0	0	0	0	164
4	0	0	0	0	867
5	0	0	0	0	110
6	0	0	0	0	733
7	0	0	0	0	756
8	0	0	0	0	997
9	0	0	0	0	400
10	0	0	0	0	1022
11	0	0	0	0	832
12	0	0	0	0	200
13	0	0	0	0	284
14	0	0	0	0	445
15	0	0	0	0	329
0	0	0	0	0	634
1	0	0	0	0	675
2	0	0	0	0	272
3	0	0	0	0	274
4	0	0	0	0	1009
5	0	0	0	0	445
6	0	0	0	0	394
7	0	0	0	0	496
8	0	0	0	0	328
9	0	0	0	0	431
10	0	0	0	0	579
11	0	0	0	0	351
12	0	0	0	0	568
13	0	0	0	0	702
14	0	0	0	0	403
15	0	0	0	0	1022
0	0	0	0	0	563
1	0	0	0	0	1022
2	0	0	0	0	264
3	0	0	0	0	890
4	0	0	0	0	303
5	0	0	0	0	657
6	0	0	0	0	681
7	0	0	0	0	780
8	0	0	0	0	414
9	0	0	0	0	103
10	0	0	0	0	714
11	0	0	0	0	255
12	0	0	0	0	127
13	0	0	0	0	87
14	0	0	0	0	347
15	0	0	0	0	1022
0	0	0	0	0	387
1	0	0	0	0	840
2	0	0	0	0	568
3	0	0	0	0	679
4	0	0	0	0	419
5	0	0	0	0	652
6	0	0	0	0	423
7	0	0	0	0	539
8	0	0	0	0	467
9	0	0	0	0	558
10	0	0	0	0	582
11	0	0	0	0	546
12	0	0	0	0	405
13	0	0	0	0	558
14	0	0	0	0	425
15	0	0	0	0	515
0	0	0	0	0	500
1	0	0	0	0	422
2	0	0	0	0	484
3	0	0	0	0	564
4	0	0	0	0	615
5	0	0	0	0	519
6	0	0	0	0	482
7	0	0	0	0	485
8	0	0	0	0	644
9	0	0	0	0	518
10	0	0	0	0	413
11	0	0	0	0	530
12	0	0	0	0	497
13	0	0	0	0	507
14	0	0	0	0	499
15	0	0	0	0	523
0	0	0	0	0	464
1	0	0	0	0	554
2	0	0	0	0	491
3	0	0	0	0	526
4	0	0	0	0	522
5	0	0	0	0	511
6	0	0	0	0	519
7	0	0	0	0	480
8	0	0	0	0	534
9	0	0	0	0	508
10	0	0	0	0	464
11	0	0	0	0	571
12	0	0	0	0	483
13	0	0	0	0	529
14	0	0	0	0	528
15	0	0	0	0	544
0	0	0	0	0	457
1	0	0	0	0	621
2	0	0	0	0	485
3	0	0	0	0	515
4	0	0	0	0	486
5	0	0	0	0	551
6	0	0	0	0	492
7	0	0	0	0	543
8	0	0	0	0	509
9	0	0	0	0	505
10	0	0	0	0	479
11	0	0	0	0	547
12	0	0	0	0	515
13	0	0	0	0	558
14	0	0	0	0	491
15	0	0	0	0	509
0	0	0	0	0	487
1	0	0	0	0	506
2	0	0	0	0	497
3	0	0	0	0	519
4	0	0	0	0	503
5	0	0	0	0	547
6	0	0	0	0	492
7	0	0	0	0	543
8	0	0	0	0	426
9	0	0	0	0	599
10	0	0	0	0	470
11	0	0	0	0	530
12	0	0	0	0	471
13	0	0	0	0	531
14	0	0	0	0	485
15	0	0	0	0	537
0	0	0	0	0	515
1	0	0	0	0	563
2	0	0	0	0	462
3	0	0	0	0	517
4	0	0	0	0	471
5	0	0	0	0	536
6	0	0	0	0	489
7	0	0	0	0	540
8	0	0	0	0	486
9	0	0	0	0	563
10	0	0	0	0	478
11	0	0	0	0	544
12	0	0	0	0	478
13	0	0	0	0	538
14	0	0	0	0	484
15	0	0	0	0	559
0	0	0	0	0	492
1	0	0	0	0	534
2	0	0	0	0	456
3	0	0	0	0	529
4	0	0	0	0	482
5	0	0	0	0	562
6	0	0	0	0	500
7	0	0	0	0	550
8	0	0	0	0	456
9	0	0	0	0	556
10	0	0	0	0	467
11	0	0	0	0	553
12	0	0	0	0	480
13	0	0	0	0	622
14	0	0	0	0	476
15	0	0	0	0	535
0	0	0	0	0	481
1	0	0	0	0	551
2	0	0	0	0	492
3	0	0	0	0	535
4	0	0	0	0	474
5	0	0	0	0	526
6	0	0	0	0	515
7	0	0	0	0	527
8	0	0	0	0	463
9	0	0	0	0	538
10	0	0	0	0	481
11	0	0	0	0	574
12	0	0	0	0	515
13	0	0	0	0	533
14	0	0	0	0	481
15	0	0	0	0	518
0	0	0	0	0	495
1	0	0	0	0	561
2	0	0	0	0	449
3	0	0	0	0	528
4	0	0	0	0	482
5	0	0	0	0	584
6	0	0	0	0	495
7	0	0	0	0	507
8	0	0	0	0	502
9	0	0	0	0	494
10	0	0	0	0	551
11	0	0	0	0	515
12	0	0	0	0	480
13	0	0	0	0	505
14	0	0	0	0	525
15	0	0	0	0	529
0	0	0	0	0	486
1	0	0	0	0	524
2	0	0	0	0	469
3	0	0	0	0	556
4	0	0	0	0	482
5	0	0	0	0	448
6	0	0	0	0	469
7	0	0	0	0	498
8	0	0	0	0	499
9	0	0	0	0	504
10	0	0	0	0	488
11	0	0	0	0	536
12	0	0	0	0	490
13	0	0	0	0	512
14	0	0	0	0	478
15	0	0	0	0	545
0	0	0	0	0	438
1	0	0	0	0	551
2	0	0	0	0	472
3	0	0	0	0	474
4	0	0	0	0	491
5	0	0	0	0	533
6	0	0	0	0	500
7	0	0	0	0	526
8	0	0	0	0	499
9	0	0	0	0	527
10	0	0	0	0	530
11	0	0	0	0	526
12	0	0	0	0	481
13	0	0	0	0	520
14	0	0	0	0	487
15	0	0	0	0	533
0	0	0	0	0	493
1	0	0	0	0	536
2	0	0	0	0	481
3	0	0	0	0	540
4	0	0	0	0	480
5	0	0	0	0	547
6	0	0	0	0	511
7	0	0	0	0	560
8	0	0	0	0	487
9	0	0	0	0	526
10	0	0	0	0	478
11	0	0	0	0	522
12	0	0	0	0	480
13	0	0	0	0	531
14	0	0	0	0	430
15	0	0	0	0	519
0	0	0	0	0	490
1	0	0	0	0	495
2	0	0	0	0	487
3	0	0	0	0	464
4	0	0	0	0	500
5	0	0	0	0	646
6	0	0	0	0	476
7	0	0	0	0	521
8	0	0	0	0	492
9	0	0	0	0	537
10	0	0	0	0	488
11	0	0	0	0	531
12	0	0	0	0	515
13	0	0	0	0	632
14	0	0	0	0	506
15	0	0	0	0	536
0	0	0	0	0	486
1	0	0	0	0	540
2	0	0	0	0	489
3	0	0	0	0	513
4	0	0	0	0	487
5	0	0	0	0	560
6	0	0	0	0	460
7	0	0	0	0	529
8	0	0	0	0	489
9	0	0	0	0	540
10	0	0	0	0	489
11	0	0	0	0	538
12	0	0	0	0	608
13	0	0	0	0	524
14	0	0	0	0	480
15	0	0	0	0	541
0	0	0	0	0	489
1	0	0	0	0	553
2	0	0	0	0	608
3	0	0	0	0	508
4	0	0	0	0	432
5	0	0	0	0	506
6	0	0	0	0	479
7	0	0	0	0	583
8	0	0	0	0	483
9	0	0	0	0	541
10	0	0	0	0	484
11	0	0	0	0	524
12	0	0	0	0	519
13	0	0	0	0	538
14	0	0	0	0	463
15	0	0	0	0	540
0	0	0	0	0	480
1	0	0	0	0	548
2	0	0	0	0	505
3	0	0	0	0	505
4	0	0	0	0	492
5	0	0	0	0	454
6	0	0	0	0	473
7	0	0	0	0	483
8	0	0	0	0	551
9	0	0	0	0	511
10	0	0	0	0	487
11	0	0	0	0	372
12	0	0	0	0	354
13	0	0	0	0	638
14	0	0	0	0	449
15	0	0	0	0	583
0	0	0	0	0	599
1	0	0	0	0	253
2	0	0	0	0	844
3	0	0	0	0	626
4	0	0	0	0	121
5	0	0	0	0	816
6	0	0	0	0	333
7	0	0	0	0	543
8	0	0	0	0	391
9	0	0	0	0	15
10	0	0	0	0	814
11	0	0	0	0	680
12	0	0	0	0	140
13	0	0	0	0	914
14	0	0	0	0	603
15	0	0	0	0	336
0	0	0	0	0	954
1	0	0	0	0	263
2	0	0	0	0	473
3	0	0	0	0	1022
4	0	0	0	0	209
5	0	0	0	0	1022
6	0	0	0	0	268
7	0	0	0	0	636
8	0	0	0	0	701
9	0	0	0	0	231
10	0	0	0	0	751
11	0	0	0	0	399
12	0	0	0	0	500
13	0	0	0	0	1022
14	0	0	0	0	222
15	0	0	0	0	683
0	0	0	0	0	725
1	0	0	0	0	495
2	0	0	0	0	301
3	0	0	0	0	716
4	0	0	0	0	499
5	0	0	0	0	677
6	0	0	0	0	581
7	0	0	0	0	554
8	0	0	0	0	475
9	0	0	0	0	548
10	0	0	0	0	230
11	0	0	0	0	326
12	0	0	0	0	543
13	0	0	0	0	234
14	0	0	0	0	556
15	0	0	0	0	811
0	0	0	0	0	347
1	0	0	0	0	347
2	0	0	0	0	531
3	0	0	0	0	369
4	0	0	0	0	1022
5	0	0	0	0	461
6	0	0	0	0	493
7	0	0	0	0	473
8	0	0	0	0	311
9	0	0	0	0	1022
10	0	0	0	0	487
11	0	0	0	0	401
12	0	0	0	0	519
13	0	0	0	0	0
14	0	0	0	0	537
15	0	0	0	0	188
0	0	0	0	0	1022
1	0	0	0	0	651
2	0	0	0	0	0
3	0	0	0	0	516
4	0	0	0	0	0
5	0	0	0	0	795
6	0	0	0	0	398
7	0	0	0	0	1022
8	0	0	0	0	289
9	0	0	0	0	0
10	0	0	0	0	970
11	0	0	0	0	64
12	0	0	0	0	843
13	0	0	0	0	23
14	0	0	0	0	1022
15	0	0	0	0	295
0	0	0	0	0	0
1	0	0	0	0	1022
2	0	0	0	0	285
3	0	0	0	0	138
4	0	0	0	0	698
5	0	0	0	0	585
6	0	0	0	0	214
7	0	0	0	0	607
8	0	0	0	0	0
9	0	0	0	0	1022
10	0	0	0	0	0
11	0	0	0	0	953
12	0	0	0	0	519
13	0	0	0	0	851
14	0	0	0	0	672
15	0	0	0	0	0
0	0	0	0	0	171
1	0	0	0	0	0
2	0	0	0	0	275
3	0	0	0	0	497
4	0	0	0	0	689
5	0	0	0	0	290
6	0	0	0	0	1022
7	0	0	0	0	524
8	0	0	0	0	769
9	0	0	0	0	320
10	0	0	0	0	707
11	0	0	0	0	0
12	0	0	0	0	512
13	0	0	0	0	508
14	0	0	0	0	591
15	0	0	0	0	389
0	0	0	0	0	532
1	0	0	0	0	320
2	0	0	0	0	396
3	0	0	0	0	762
4	0	0	0	0	1022
5	0	0	0	0	0
6	0	0	0	0	487
7	0	0	0	0	203
8	0	0	0	0	248
9	0	0	0	0	444
10	0	0	0	0	505
11	0	0	0	0	1022
12	0	0	0	0	961
13	0	0	0	0	560
14	0	0	0	0	547
15	0	0	0	0	1022
0	0	0	0	0	1022
1	0	0	0	0	236
2	0	0	0	0	333
3	0	0	0	0	428
4	0	0	0	0	761
5	0	0	0	0	944
6	0	0	0	0	198
7	0	0	0	0	514
8	0	0	0	0	498
9	0	0	0	0	603
10	0	0	0	0	251
11	0	0	0	0	1022
12	0	0	0	0	356
13	0	0	0	0	177
14	0	0	0	0	706
15	0	0	0	0	486
0	0	0	0	0	304
1	0	0	0	0	821
2	0	0	0	0	335
3	0	0	0	0	519
4	0	0	0	0	518
5	0	0	0	0	451
6	0	0	0	0	478
7	0	0	0	0	498
8	0	0	0	0	546
9	0	0	0	0	512
10	0	0	0	0	604
11	0	0	0	0	545
12	0	0	0	0	425
13	0	0	0	0	588
14	0	0	0	0	486
15	0	0	0	0	527
0	0	0	0	0	539
1	0	0	0	0	487
2	0	0	0	0	537
3	0	0	0	0	486
4	0	0	0	0	570
5	0	0	0	0	506
6	0	0	0	0	432
7	0	0	0	0	530
8	0	0	0	0	484
9	0	0	0	0	467
10	0	0	0	0	598
11	0	0	0	0	491
12	0	0	0	0	483
13	0	0	0	0	562
14	0	0	0	0	472
15	0	0	0	0	515
0	0	0	0	0	539
1	0	0	0	0	497
2	0	0	0	0	437
3	0	0	0	0	609
4	0	0	0	0	486
5	0	0	0	0	515
6	0	0	0	0	516
7	0	0	0	0	516
8	0	0	0	0	512
9	0	0	0	0	505
10	0	0	0	0	558
11	0	0	0	0	483
12	0	0	0	0	489
13	0	0	0	0	518
14	0	0	0	0	498
15	0	0	0	0	579
0	0	0	0	0	502
1	0	0	0	0	527
2	0	0	0	0	520
3	0	0	0	0	482
4	0	0	0	0	535
5	0	0	0	0	516
6	0	0	0	0	505
7	0	0	0	0	535
8	0	0	0	0	509
9	0	0	0	0	524
10	0	0	0	0	508
11	0	0	0	0	459
12	0	0	0	0	561
13	0	0	0	0	463
14	0	0	0	0	503
15	0	0	0	0	517
0	0	0	0	0	512
1	0	0	0	0	536
2	0	0	0	0	505
3	0	0	0	0	495
4	0	0	0	0	563
5	0	0	0	0	521
6	0	0	0	0	487
7	0	0	0	0	523
8	0	0	0	0	493
9	0	0	0	0	542
10	0	0	0	0	483
11	0	0	0	0	510
12	0	0	0	0	493
13	0	0	0	0	519
14	0	0	0	0	494
15	0	0	0	0	520
0	0	0	0	0	516
1	0	0	0	0	518
2	0	0	0	0	503
3	0	0	0	0	524
4	0	0	0	0	474
5	0	0	0	0	595
6	0	0	0	0	492
7	0	0	0	0	484
8	0	0	0	0	556
9	0	0	0	0	502
10	0	0	0	0	505
11	0	0	0	0	523
12	0	0	0	0	504
13	0	0	0	0	521
14	0	0	0	0	526
15	0	0	0	0	532
0	0	0	0	0	490
1	0	0	0	0	547
2	0	0	0	0	498
3	0	0	0	0	519
4	0	0	0	0	509
5	0	0	0	0	523
6	0	0	0	0	524
7	0	0	0	0	505
8	0	0	0	0	498
9	0	0	0	0	514
10	0	0	0	0	511
11	0	0	0	0	537
12	0	0	0	0	494
13	0	0	0	0	521
14	0	0	0	0	519
15	0	0	0	0	530
0	0	0	0	0	484
1	0	0	0	0	561
2	0	0	0	0	506
3	0	0	0	0	500
4	0	0	0	0	502
5	0	0	0	0	518
6	0	0	0	0	486
7	0	0	0	0	523
8	0	0	0	0	505
9	0	0	0	0	529
10	0	0	0	0	491
11	0	0	0	0	554
12	0	0	0	0	504
13	0	0	0	0	511
14	0	0	0	0	529
15	0	0	0	0	511
0	0	0	0	0	500
1	0	0	0	0	515
2	0	0	0	0	503
3	0	0	0	0	526
4	0	0	0	0	510
5	0	0	0	0	534
6	0	0	0	0	473
7	0	0	0	0	512
8	0	0	0	0	501
9	0	0	0	0	542
10	0	0	0	0	512
11	0	0	0	0	525
12	0	0	0	0	511
13	0	0	0	0	527
14	0	0	0	0	486
15	0	0	0	0	497
0	0	0	0	0	519
1	0	0	0	0	521
2	0	0	0	0	500
3	0	0	0	0	528
4	0	0	0	0	505
5	0	0	0	0	519
6	0	0	0	0	495
7	0	0	0	0	524
8	0	0	0	0	502
9	0	0	0	0	536
10	0	0	0	0	497
11	0	0	0	0	512
12	0	0	0	0	507
13	0	0	0	0	511
14	0	0	0	0	506
15	0	0	0	0	516
0	0	0	0	0	513
1	0	0	0	0	538
2	0	0	0	0	489
3	0	0	0	0	515
4	0	0	0	0	511
5	0	0	0	0	511
6	0	0	0	0	507
7	0	0	0	0	512
8	0	0	0	0	510
9	0	0	0	0	521
10	0	0	0	0	511
11	0	0	0	0	528
12	0	0	0	0	503
13	0	0	0	0	489
14	0	0	0	0	503
15	0	0	0	0	534
0	0	0	0	0	505
1	0	0	0	0	491
2	0	0	0	0	487
3	0	0	0	0	525
4	0	0	0	0	511
5	0	0	0	0	528
6	0	0	0	0	493
7	0	0	0	0	515
8	0	0	0	0	498
9	0	0	0	0	523
10	0	0	0	0	492
11	0	0	0	0	523
12	0	0	0	0	489
13	0	0	0	0	552
14	0	0	0	0	496
15	0	0	0	0	518
0	0	0	0	0	509
1	0	0	0	0	527
2	0	0	0	0	535
3	0	0	0	0	497
4	0	0	0	0	502
5	0	0	0	0	524
6	0	0	0	0	506
7	0	0	0	0	521
8	0	0	0	0	506
9	0	0	0	0	536
10	0	0	0	0	514
11	0	0	0	0	480
12	0	0	0	0	519
13	0	0	0	0	523
14	0	0	0	0	500
15	0	0	0	0	549
0	0	0	0	0	501
1	0	0	0	0	505
2	0	0	0	0	466
3	0	0	0	0	528
4	0	0	0	0	506
5	0	0	0	0	497
6	0	0	0	0	507
7	0	0	0	0	527
8	0	0	0	0	453
9	0	0	0	0	498
10	0	0	0	0	511
11	0	0	0	0	534
12	0	0	0	0	511
13	0	0	0	0	525
14	0	0	0	0	510
15	0	0	0	0	505
0	0	0	0	0	566
1	0	0	0	0	517
2	0	0	0	0	487
3	0	0	0	0	490
4	0	0	0	0	519
5	0	0	0	0	527
6	0	0	0	0	511
7	0	0	0	0	513
8	0	0	0	0	501
9	0	0	0	0	564
10	0	0	0	0	478
11	0	0	0	0	505
12	0	0	0	0	496
13	0	0	0	0	522
14	0	0	0	0	503
15	0	0	0	0	522
0	0	0	0	0	528
1	0	0	0	0	502
2	0	0	0	0	463
3	0	0	0	0	425
4	0	0	0	0	515
5	0	0	0	0	578
6	0	0	0	0	523
7	0	0	0	0	514
8	0	0	0	0	530
9	0	0	0	0	499
10	0	0	0	0	526
11	0	0	0	0	523
12	0	0	0	0	511
13	0	0	0	0	517
14	0	0	0	0	519
15	0	0	0	0	540
0	0	0	0	0	519
1	0	0	0	0	528
2	0	0	0	0	504
3	0	0	0	0	523
4	0	0	0	0	500
5	0	0	0	0	509
6	0	0	0	0	563
7	0	0	0	0	511
8	0	0	0	0	497
9	0	0	0	0	482
10	0	0	0	0	509
11	0	0	0	0	516
12	0	0	0	0	515
13	0	0	0	0	484
14	0	0	0	0	541
15	0	0	0	0	476
0	0	0	0	0	502
1	0	0	0	0	520
2	0	0	0	0	514
3	0	0	0	0	503
4	0	0	0	0	516
5	0	0	0	0	485
6	0	0	0	0	516
7	0	0	0	0	558
8	0	0	0	0	507
9	0	0	0	0	515
10	0	0	0	0	506
11	0	0	0	0	520
12	0	0	0	0	588
13	0	0	0	0	500
14	0	0	0	0	504
15	0	0	0	0	510
0	0	0	0	0	509
1	0	0	0	0	513
2	0	0	0	0	517
3	0	0	0	0	510
4	0	0	0	0	550
5	0	0	0	0	505
6	0	0	0	0	521
7	0	0	0	0	509
8	0	0	0	0	547
9	0	0	0	0	528
10	0	0	0	0	511
11	0	0	0	0	508
12	0	0	0	0	545
13	0	0	0	0	504
14	0	0	0	0	536
15	0	0	0	0	519
0	0	0	0	0	519
1	0	0	0	0	465
2	0	0	0	0	508
3	0	0	0	0	522
4	0	0	0	0	512
5	0	0	0	0	502
6	0	0	0	0	516
7	0	0	0	0	502
8	0	0	0	0	498
9	0	0	0	0	497
10	0	0	0	0	516
11	0	0	0	0	511
12	0	0	0	0	518
13	0	0	0	0	494
14	0	0	0	0	529
15	0	0	0	0	496
0	0	0	0	0	520
1	0	0	0	0	467
2	0	0	0	0	523
3	0	0	0	0	506
4	0	0	0	0	547
5	0	0	0	0	509
6	0	0	0	0	559
7	0	0	0	0	493
8	0	0	0	0	525
9	0	0	0	0	583
10	0	0	0	0	504
11	0	0	0	0	501
12	0	0	0	0	513
13	0	0	0	0	559
14	0	0	0	0	492
15	0	0	0	0	508
0	0	0	0	0	520
1	0	0	0	0	500
2	0	0	0	0	527
3	0	0	0	0	499
4	0	0	0	0	524
5	0	0	0	0	487
6	0	0	0	0	505
7	0	0	0	0	506
8	0	0	0	0	535
9	0	0	0	0	494
10	0	0	0	0	508
11	0	0	0	0	479
12	0	0	0	0	535
13	0	0	0	0	499
14	0	0	0	0	538
15	0	0	0	0	486
0	0	0	0	0	536
1	0	0	0	0	485
2	0	0	0	0	498
3	0	0	0	0	516
4	0	0	0	0	526
5	0	0	0	0	494
6	0	0	0	0	563
7	0	0	0	0	488
8	0	0	0	0	504
9	0	0	0	0	483
10	0	0	0	0	538
11	0	0	0	0	512
12	0	0	0	0	544
13	0	0	0	0	496
14	0	0	0	0	525
15	0	0	0	0	503
0	0	0	0	0	559
1	0	0	0	0	529
2	0	0	0	0	552
3	0	0	0	0	487
4	0	0	0	0	532
5	0	0	0	0	494
6	0	0	0	0	518
7	0	0	0	0	490
8	0	0	0	0	517
9	0	0	0	0	529
10	0	0	0	0	532
11	0	0	0	0	492
12	0	0	0	0	540
13	0	0	0	0	489
14	0	0	0	0	551
15	0	0	0	0	476
0	0	0	0	0	544
1	0	0	0	0	498
2	0	0	0	0	509
3	0	0	0	0	504
4	0	0	0	0	539
5	0	0	0	0	494
6	0	0	0	0	548
7	0	0	0	0	486
8	0	0	0	0	567
9	0	0	0	0	505
10	0	0	0	0	543
11	0	0	0	0	472
12	0	0	0	0	516
13	0	0	0	0	493
14	0	0	0	0	596
15	0	0	0	0	494
0	0	0	0	0	534
1	0	0	0	0	479
2	0	0	0	0	547
3	0	0	0	0	476
4	0	0	0	0	540
5	0	0	0	0	488
6	0	0	0	0	546
7	0	0	0	0	469
8	0	0	0	0	633
9	0	0	0	0	479
10	0	0	0	0	534
11	0	0	0	0	475
12	0	0	0	0	548
13	0	0	0	0	477
14	0	0	0	0	567
15	0	0	0	0	475
0	0	0	0	0	527
1	0	0	0	0	475
2	0	0	0	0	527
3	0	0	0	0	475
4	0	0	0	0	543
5	0	0	0	0	477
6	0	0	0	0	591
7	0	0	0	0	478
8	0	0	0	0	544
9	0	0	0	0	472
10	0	0	0	0	566
11	0	0	0	0	475
12	0	0	0	0	556
13	0	0	0	0	480
14	0	0	0	0	551
15	0	0	0	0	477
0	0	0	0	0	542
1	0	0	0	0	467
2	0	0	0	0	586
3	0	0	0	0	464
4	0	0	0	0	582
5	0	0	0	0	465
6	0	0	0	0	552
7	0	0	0	0	477
8	0	0	0	0	556
9	0	0	0	0	465
10	0	0	0	0	540
11	0	0	0	0	619
12	0	0	0	0	538
13	0	0	0	0	480
14	0	0	0	0	553
15	0	0	0	0	493
0	0	0	0	0	555
1	0	0	0	0	470
2	0	0	0	0	542
3	0	0	0	0	476
4	0	0	0	0	550
5	0	0	0	0	447
6	0	0	0	0	547
7	0	0	0	0	454
8	0	0	0	0	550
9	0	0	0	0	458
10	0	0	0	0	575
11	0	0	0	0	464
12	0	0	0	0	530
13	0	0	0	0	476
14	0	0	0	0	551
15	0	0	0	0	464
0	0	0	0	0	561
1	0	0	0	0	475
2	0	0	0	0	544
3	0	0	0	0	468
4	0	0	0	0	583
5	0	0	0	0	462
6	0	0	0	0	641
7	0	0	0	0	456
8	0	0	0	0	542
9	0	0	0	0	468
10	0	0	0	0	568
11	0	0	0	0	460
12	0	0	0	0	588
13	0	0	0	0	422
14	0	0	0	0	541
15	0	0	0	0	458
0	0	0	0	0	559
1	0	0	0	0	460
2	0	0	0	0	566
3	0	0	0	0	460
4	0	0	0	0	568
5	0	0	0	0	461
6	0	0	0	0	568
7	0	0	0	0	432
8	0	0	0	0	574
9	0	0	0	0	508
10	0	0	0	0	492
11	0	0	0	0	506
12	0	0	0	0	625
13	0	0	0	0	368
14	0	0	0	0	425
15	0	0	0	0	640
0	0	0	0	0	471
1	0	0	0	0	630
2	0	0	0	0	396
3	0	0	0	0	499
4	0	0	0	0	860
5	0	0	0	0	206
6	0	0	0	0	771
7	0	0	0	0	249
8	0	0	0	0	632
9	0	0	0	0	440
10	0	0	0	0	361
11	0	0	0	0	827
12	0	0	0	0	501
13	0	0	0	0	448
14	0	0	0	0	634
15	0	0	0	0	318
0	0	0	0	0	801
1	0	0	0	0	418
2	0	0	0	0	711
3	0	0	0	0	376
4	0	0	0	0	1022
5	0	0	0	0	20
6	0	0	0	0	489
7	0	0	0	0	608
8	0	0	0	0	363
9	0	0	0	0	0
10	0	0	0	0	508
11	0	0	0	0	0
12	0	0	0	0	823
13	0	0	0	0	312
14	0	0	0	0	0
15	0	0	0	0	498
0	0	0	0	0	0
1	0	0	0	0	537
2	0	0	0	0	396
3	0	0	0	0	497
4	0	0	0	0	821
5	0	0	0	0	0
6	0	0	0	0	1022
7	0	0	0	0	268
8	0	0	0	0	1022
9	0	0	0	0	194
10	0	0	0	0	0
11	0	0	0	0	926
12	0	0	0	0	98
13	0	0	0	0	1022
14	0	0	0	0	217
15	0	0	0	0	321
0	0	0	0	0	615
1	0	0	0	0	563
2	0	0	0	0	134
3	0	0	0	0	327
4	0	0	0	0	1022
5	0	0	0	0	0
6	0	0	0	0	577
7	0	0	0	0	871
8	0	0	0	0	1022
9	0	0	0	0	490
10	0	0	0	0	422
11	0	0	0	0	837
12	0	0	0	0	534
13	0	0	0	0	231
14	0	0	0	0	239
15	0	0	0	0	522
0	0	0	0	0	1022
1	0	0	0	0	217
2	0	0	0	0	493
3	0	0	0	0	187
4	0	0	0	0	1022
5	0	0	0	0	109
6	0	0	0	0	89
7	0	0	0	0	393
8	0	0	0	0	825
9	0	0	0	0	307
10	0	0	0	0	8
11	0	0	0	0	855
12	0	0	0	0	0
13	0	0	0	0	462
14	0	0	0	0	627
15	0	0	0	0	669
0	0	0	0	0	164
1	0	0	0	0	451
2	0	0	0	0	0
3	0	0	0	0	374
4	0	0	0	0	388
5	0	0	0	0	98
6	0	0	0	0	311
7	0	0	0	0	380
8	0	0	0	0	617
9	0	0	0	0	863
10	0	0	0	0	547
11	0	0	0	0	443
12	0	0	0	0	494
13	0	0	0	0	535
14	0	0	0	0	463
15	0	0	0	0	657
0	0	0	0	0	523
1	0	0	0	0	475
2	0	0	0	0	530
3	0	0	0	0	444
4	0	0	0	0	499
5	0	0	0	0	432
6	0	0	0	0	520
7	0	0	0	0	519
8	0	0	0	0	475
9	0	0	0	0	436
10	0	0	0	0	534
11	0	0	0	0	382
12	0	0	0	0	517
13	0	0	0	0	451
14	0	0	0	0	629
15	0	0	0	0	479
0	0	0	0	0	479
1	0	0	0	0	627
2	0	0	0	0	479
3	0	0	0	0	522
4	0	0	0	0	475
5	0	0	0	0	423
6	0	0	0	0	621
7	0	0	0	0	536
8	0	0	0	0	547
9	0	0	0	0	476
10	0	0	0	0	487
11	0	0	0	0	505
12	0	0	0	0	527
13	0	0	0	0	519
14	0	0	0	0	527
15	0	0	0	0	489
0	0	0	0	0	530
1	0	0	0	0	482
2	0	0	0	0	535
3	0	0	0	0	436
4	0	0	0	0	620
5	0	0	0	0	512
6	0	0	0	0	508
7	0	0	0	0	487
8	0	0	0	0	515
9	0	0	0	0	509
10	0	0	0	0	527
11	0	0	0	0	491
12	0	0	0	0	535
13	0	0	0	0	538
14	0	0	0	0	545
15	0	0	0	0	473
0	0	0	0	0	518
1	0	0	0	0	486
2	0	0	0	0	519
3	0	0	0	0	495
4	0	0	0	0	556
5	0	0	0	0	437
6	0	0	0	0	587
7	0	0	0	0	479
8	0	0	0	0	523
9	0	0	0	0	526
10	0	0	0	0	575
11	0	0	0	0	437
12	0	0	0	0	528
13	0	0	0	0	516
14	0	0	0	0	559
15	0	0	0	0	424
0	0	0	0	0	569
1	0	0	0	0	511
2	0	0	0	0	574
3	0	0	0	0	452
4	0	0	0	0	547
5	0	0	0	0	539
6	0	0	0	0	585
7	0	0	0	0	518
8	0	0	0	0	593
9	0	0	0	0	483
10	0	0	0	0	543
11	0	0	0	0	485
12	0	0	0	0	543
13	0	0	0	0	503
14	0	0	0	0	508
15	0	0	0	0	479
0	0	0	0	0	558
1	0	0	0	0	470
2	0	0	0	0	539
3	0	0	0	0	481
4	0	0	0	0	555
5	0	0	0	0	493
6	0	0	0	0	558
7	0	0	0	0	479
8	0	0	0	0	550
9	0	0	0	0	487
10	0	0	0	0	553
11	0	0	0	0	478
12	0	0	0	0	548
13	0	0	0	0	466
14	0	0	0	0	543
15	0	0	0	0	490
0	0	0	0	0	512
1	0	0	0	0	469
2	0	0	0	0	556
3	0	0	0	0	461
4	0	0	0	0	541
5	0	0	0	0	450
6	0	0	0	0	556
7	0	0	0	0	536
8	0	0	0	0	563
9	0	0	0	0	480
10	0	0	0	0	563
11	0	0	0	0	463
12	0	0	0	0	526
13	0	0	0	0	482
14	0	0	0	0	538
15	0	0	0	0	473
0	0	0	0	0	566
1	0	0	0	0	472
2	0	0	0	0	549
3	0	0	0	0	474
4	0	0	0	0	573
5	0	0	0	0	482
6	0	0	0	0	559
7	0	0	0	0	481
8	0	0	0	0	532
9	0	0	0	0	464
10	0	0	0	0	556
11	0	0	0	0	474
12	0	0	0	0	551
13	0	0	0	0	480
14	0	0	0	0	547
15	0	0	0	0	462
0	0	0	0	0	547
1	0	0	0	0	494
2	0	0	0	0	544
3	0	0	0	0	511
4	0	0	0	0	550
5	0	0	0	0	463
6	0	0	0	0	549
7	0	0	0	0	481
8	0	0	0	0	539
9	0	0	0	0	480
10	0	0	0	0	574
11	0	0	0	0	464
12	0	0	0	0	541
13	0	0	0	0	432
14	0	0	0	0	564
15	0	0	0	0	487
0	0	0	0	0	561
1	0	0	0	0	483
2	0	0	0	0	548
3	0	0	0	0	492
4	0	0	0	0	556
5	0	0	0	0	486
6	0	0	0	0	551
7	0	0	0	0	473
8	0	0	0	0	547
9	0	0	0	0	478
10	0	0	0	0	548
11	0	0	0	0	473
12	0	0	0	0	553
13	0	0	0	0	466
14	0	0	0	0	541
15	0	0	0	0	477
0	0	0	0	0	560
1	0	0	0	0	475
2	0	0	0	0	556
3	0	0	0	0	479
4	0	0	0	0	545
5	0	0	0	0	472
6	0	0	0	0	556
7	0	0	0	0	477
8	0	0	0	0	556
9	0	0	0	0	466
10	0	0	0	0	547
11	0	0	0	0	484
12	0	0	0	0	537
13	0	0	0	0	481
14	0	0	0	0	544
15	0	0	0	0	486
0	0	0	0	0	549
1	0	0	0	0	485
2	0	0	0	0	560
3	0	0	0	0	476
4	0	0	0	0	551
5	0	0	0	0	475
6	0	0	0	0	557
7	0	0	0	0	475
8	0	0	0	0	546
9	0	0	0	0	475
10	0	0	0	0	543
11	0	0	0	0	477
12	0	0	0	0	553
13	0	0	0	0	476
14	0	0	0	0	550
15	0	0	0	0	476
0	0	0	0	0	560
1	0	0	0	0	475
2	0	0	0	0	551
3	0	0	0	0	474
4	0	0	0	0	558
5	0	0	0	0	467
6	0	0	0	0	551
7	0	0	0	0	470
8	0	0	0	0	550
9	0	0	0	0	476
10	0	0	0	0	560
11	0	0	0	0	482
12	0	0	0	0	548
13	0	0	0	0	483
14	0	0	0	0	547
15	0	0	0	0	482
0	0	0	0	0	546
1	0	0	0	0	479
2	0	0	0	0	551
3	0	0	0	0	473
4	0	0	0	0	551
5	0	0	0	0	487
6	0	0	0	0	553
7	0	0	0	0	479
8	0	0	0	0	550
9	0	0	0	0	479
10	0	0	0	0	548
11	0	0	0	0	474
12	0	0	0	0	548
13	0	0	0	0	469
14	0	0	0	0	556
15	0	0	0	0	481
0	0	0	0	0	547
1	0	0	0	0	479
2	0	0	0	0	547
3	0	0	0	0	479
4	0	0	0	0	540
5	0	0	0	0	489
6	0	0	0	0	544
7	0	0	0	0	477
8	0	0	0	0	537
9	0	0	0	0	478
10	0	0	0	0	558
11	0	0	0	0	478
12	0	0	0	0	547
13	0	0	0	0	487
14	0	0	0	0	545
15	0	0	0	0	479
0	0	0	0	0	542
1	0	0	0	0	481
2	0	0	0	0	540
3	0	0	0	0	488
4	0	0	0	0	558
5	0	0	0	0	480
6	0	0	0	0	541
7	0	0	0	0	474
8	0	0	0	0	547
9	0	0	0	0	483
10	0	0	0	0	547
11	0	0	0	0	474
12	0	0	0	0	551
13	0	0	0	0	484
14	0	0	0	0	542
15	0	0	0	0	484
0	0	0	0	0	544
1	0	0	0	0	486
2	0	0	0	0	537
3	0	0	0	0	481
4	0	0	0	0	540
5	0	0	0	0	484
6	0	0	0	0	543
7	0	0	0	0	473
8	0	0	0	0	536
9	0	0	0	0	496
10	0	0	0	0	544
11	0	0	0	0	476
12	0	0	0	0	543
13	0	0	0	0	471
14	0	0	0	0	542
15	0	0	0	0	465
0	0	0	0	0	569
1	0	0	0	0	434
2	0	0	0	0	495
3	0	0	0	0	504
4	0	0	0	0	543
5	0	0	0	0	322
6	0	0	0	0	766
7	0	0	0	0	313
8	0	0	0	0	462
9	0	0	0	0	553
10	0	0	0	0	380
11	0	0	0	0	600
12	0	0	0	0	501
13	0	0	0	0	391
14	0	0	0	0	624
15	0	0	0	0	175
0	0	0	0	0	502
1	0	0	0	0	1022
2	0	0	0	0	319
3	0	0	0	0	649
4	0	0	0	0	1003
5	0	0	0	0	435
6	0	0	0	0	24
7	0	0	0	0	591
8	0	0	0	0	54
9	0	0	0	0	1022
10	0	0	0	0	2
11	0	0	0	0	905
12	0	0	0	0	932
13	0	0	0	0	169
14	0	0	0	0	529
15	0	0	0	0	538
0	0	0	0	0	876
1	0	0	0	0	278
2	0	0	0	0	841
3	0	0	0	0	343
4	0	0	0	0	166
5	0	0	0	0	465
6	0	0	0	0	349
7	0	0	0	0	44
8	0	0	0	0	965
9	0	0	0	0	582
10	0	0	0	0	139
11	0	0	0	0	648
12	0	0	0	0	319
13	0	0	0	0	477
14	0	0	0	0	0
15	0	0	0	0	582
0	0	0	0	0	369
1	0	0	0	0	284
2	0	0	0	0	955
3	0	0	0	0	422
4	0	0	0	0	456
5	0	0	0	0	454
6	0	0	0	0	474
7	0	0	0	0	227
8	0	0	0	0	456
9	0	0	0	0	699
10	0	0	0	0	0
11	0	0	0	0	553
12	0	0	0	0	592
13	0	0	0	0	488
14	0	0	0	0	1022
15	0	0	0	0	643
0	0	0	0	0	638
1	0	0	0	0	361
2	0	0	0	0	422
3	0	0	0	0	497
4	0	0	0	0	763
5	0	0	0	0	399
6	0	0	0	0	881
7	0	0	0	0	285
8	0	0	0	0	610
9	0	0	0	0	403
10	0	0	0	0	534
11	0	0	0	0	396
12	0	0	0	0	405
13	0	0	0	0	610
14	0	0	0	0	694
15	0	0	0	0	363
0	0	0	0	0	513
1	0	0	0	0	538
2	0	0	0	0	482
3	0	0	0	0	489
4	0	0	0	0	493
5	0	0	0	0	632
6	0	0	0	0	484
7	0	0	0	0	440
8	0	0	0	0	532
9	0	0	0	0	497
10	0	0	0	0	501
11	0	0	0	0	531
12	0	0	0	0	547
13	0	0	0	0	497
14	0	0	0	0	464
15	0	0	0	0	598
0	0	0	0	0	513
1	0	0	0	0	457
2	0	0	0	0	519
3	0	0	0	0	483
4	0	0	0	0	499
5	0	0	0	0	633
6	0	0	0	0	487
7	0	0	0	0	487
8	0	0	0	0	554
9	0	0	0	0	500
10	0	0	0	0	505
11	0	0	0	0	571
12	0	0	0	0	516
13	0	0	0	0	484
14	0	0	0	0	472
15	0	0	0	0	519
0	0	0	0	0	524
1	0	0	0	0	501
2	0	0	0	0	508
3	0	0	0	0	513
4	0	0	0	0	498
5	0	0	0	0	502
6	0	0	0	0	535
7	0	0	0	0	503
8	0	0	0	0	502
9	0	0	0	0	527
10	0	0	0	0	527
11	0	0	0	0	494
12	0	0	0	0	527
13	0	0	0	0	556
14	0	0	0	0	494
15	0	0	0	0	486
0	0	0	0	0	543
1	0	0	0	0	501
2	0	0	0	0	504
3	0	0	0	0	565
4	0	0	0	0	515
5	0	0	0	0	485
6	0	0	0	0	556
7	0	0	0	0	495
8	0	0	0	0	525
9	0	0	0	0	470
10	0	0	0	0	521
11	0	0	0	0	486
12	0	0	0	0	527
13	0	0	0	0	510
14	0	0	0	0	531
15	0	0	0	0	476
0	0	0	0	0	574
1	0	0	0	0	520
2	0	0	0	0	535
3	0	0	0	0	469
4	0	0	0	0	543
5	0	0	0	0	497
6	0	0	0	0	530
7	0	0	0	0	566
8	0	0	0	0	517
9	0	0	0	0	487
10	0	0	0	0	521
11	0	0	0	0	501
12	0	0	0	0	532
13	0	0	0	0	501
14	0	0	0	0	535
15	0	0	0	0	442
0	0	0	0	0	570
1	0	0	0	0	470
2	0	0	0	0	509
3	0	0	0	0	502
4	0	0	0	0	543
5	0	0	0	0	492
6	0	0	0	0	535
7	0	0	0	0	495
8	0	0	0	0	514
9	0	0	0	0	527
10	0	0	0	0	501
11	0	0	0	0	504
12	0	0	0	0	534
13	0	0	0	0	476
14	0	0	0	0	519
15	0	0	0	0	512
0	0	0	0	0	540
1	0	0	0	0	493
2	0	0	0	0	524
3	0	0	0	0	489
4	0	0	0	0	530
5	0	0	0	0	502
6	0	0	0	0	557
7	0	0	0	0	473
8	0	0	0	0	503
9	0	0	0	0	473
10	0	0	0	0	533
11	0	0	0	0	484
12	0	0	0	0	526
13	0	0	0	0	508
14	0	0	0	0	540
15	0	0	0	0	497
0	0	0	0	0	525
1	0	0	0	0	492
2	0	0	0	0	534
3	0	0	0	0	495
4	0	0	0	0	539
5	0	0	0	0	500
6	0	0	0	0	559
7	0	0	0	0	496
8	0	0	0	0	525
9	0	0	0	0	489
10	0	0	0	0	537
11	0	0	0	0	494
12	0	0	0	0	556
13	0	0	0	0	509
14	0	0	0	0	546
15	0	0	0	0	457
0	0	0	0	0	539
1	0	0	0	0	502
2	0	0	0	0	531
3	0	0	0	0	495
4	0	0	0	0	550
5	0	0	0	0	498
6	0	0	0	0	537
7	0	0	0	0	495
8	0	0	0	0	539
9	0	0	0	0	493
10	0	0	0	0	536
11	0	0	0	0	499
12	0	0	0	0	530
13	0	0	0	0	492
14	0	0	0	0	530
15	0	0	0	0	491
0	0	0	0	0	534
1	0	0	0	0	492
2	0	0	0	0	535
3	0	0	0	0	496
4	0	0	0	0	529
5	0	0	0	0	502
6	0	0	0	0	536
7	0	0	0	0	500
8	0	0	0	0	533
9	0	0	0	0	488
10	0	0	0	0	540
11	0	0	0	0	487
12	0	0	0	0	530
13	0	0	0	0	484
14	0	0	0	0	532
15	0	0	0	0	487
0	0	0	0	0	537
1	0	0	0	0	475
2	0	0	0	0	540
3	0	0	0	0	499
4	0	0	0	0	537
5	0	0	0	0	450
6	0	0	0	0	536
7	0	0	0	0	504
8	0	0	0	0	553
9	0	0	0	0	496
10	0	0	0	0	540
11	0	0	0	0	492
12	0	0	0	0	534
13	0	0	0	0	492
14	0	0	0	0	539
15	0	0	0	0	487
0	0	0	0	0	540
1	0	0	0	0	488
2	0	0	0	0	539
3	0	0	0	0	491
4	0	0	0	0	545
5	0	0	0	0	486
6	0	0	0	0	544
7	0	0	0	0	492
8	0	0	0	0	542
9	0	0	0	0	493
10	0	0	0	0	539
11	0	0	0	0	491
12	0	0	0	0	542
13	0	0	0	0	504
14	0	0	0	0	536
15	0	0	0	0	489
0	0	0	0	0	534
1	0	0	0	0	491
2	0	0	0	0	540
3	0	0	0	0	500
4	0	0	0	0	536
5	0	0	0	0	487
6	0	0	0	0	534
7	0	0	0	0	490
8	0	0	0	0	534
9	0	0	0	0	491
10	0	0	0	0	545
11	0	0	0	0	489
12	0	0	0	0	535
13	0	0	0	0	495
14	0	0	0	0	553
15	0	0	0	0	489
0	0	0	0	0	539
1	0	0	0	0	487
2	0	0	0	0	536
3	0	0	0	0	495
4	0	0	0	0	540
5	0	0	0	0	485
6	0	0	0	0	540
7	0	0	0	0	486
8	0	0	0	0	545
9	0	0	0	0	485
10	0	0	0	0	540
11	0	0	0	0	496
12	0	0	0	0	543
13	0	0	0	0	497
14	0	0	0	0	537
15	0	0	0	0	487
0	0	0	0	0	539
1	0	0	0	0	485
2	0	0	0	0	535
3	0	0	0	0	494
4	0	0	0	0	548
5	0	0	0	0	480
6	0	0	0	0	537
7	0	0	0	0	487
8	0	0	0	0	539
9	0	0	0	0	485
10	0	0	0	0	541
11	0	0	0	0	485
12	0	0	0	0	536
13	0	0	0	0	486
14	0	0	0	0	540
15	0	0	0	0	491
0	0	0	0	0	542
1	0	0	0	0	488
2	0	0	0	0	547
3	0	0	0	0	483
4	0	0	0	0	537
5	0	0	0	0	483
6	0	0	0	0	537
7	0	0	0	0	480
8	0	0	0	0	527
9	0	0	0	0	480
10	0	0	0	0	550
11	0	0	0	0	476
12	0	0	0	0	531
13	0	0	0	0	498
14	0	0	0	0	493
15	0	0	0	0	498
0	0	0	0	0	559
1	0	0	0	0	630
2	0	0	0	0	348
3	0	0	0	0	588
4	0	0	0	0	458
5	0	0	0	0	326
6	0	0	0	0	877
7	0	0	0	0	56
8	0	0	0	0	728
9	0	0	0	0	456
10	0	0	0	0	318
11	0	0	0	0	649
12	0	0	0	0	414
13	0	0	0	0	668
14	0	0	0	0	52
15	0	0	0	0	841
0	0	0	0	0	72
1	0	0	0	0	756
2	0	0	0	0	663
3	0	0	0	0	371
4	0	0	0	0	732
5	0	0	0	0	455
6	0	0	0	0	635
7	0	0	0	0	356
8	0	0	0	0	312
9	0	0	0	0	390
10	0	0	0	0	995
11	0	0	0	0	0
12	0	0	0	0	961
13	0	0	0	0	0
14	0	0	0	0	513
15	0	0	0	0	423
0	0	0	0	0	0
1	0	0	0	0	1022
2	0	0	0	0	0
3	0	0	0	0	1022
4	0	0	0	0	235
5	0	0	0	0	1022
6	0	0	0	0	670
7	0	0	0	0	60
8	0	0	0	0	579
9	0	0	0	0	420
10	0	0	0	0	280
11	0	0	0	0	166
12	0	0	0	0	661
13	0	0	0	0	1022
14	0	0	0	0	312
15	0	0	0	0	870
0	0	0	0	0	418
1	0	0	0	0	591
2	0	0	0	0	466
3	0	0	0	0	466
4	0	0	0	0	494
5	0	0	0	0	772
6	0	0	0	0	521
7	0	0	0	0	347
8	0	0	0	0	475
9	0	0	0	0	860
10	0	0	0	0	801
11	0	0	0	0	562
12	0	0	0	0	166
13	0	0	0	0	696
14	0	0	0	0	1022
15	0	0	0	0	385
0	0	0	0	0	391
1	0	0	0	0	540
2	0	0	0	0	600
3	0	0	0	0	484
4	0	0	0	0	345
5	0	0	0	0	955
6	0	0	0	0	487
7	0	0	0	0	472
8	0	0	0	0	465
9	0	0	0	0	544
10	0	0	0	0	564
11	0	0	0	0	434
12	0	0	0	0	419
13	0	0	0	0	464
14	0	0	0	0	564
15	0	0	0	0	510
0	0	0	0	0	514
1	0	0	0	0	464
2	0	0	0	0	501
3	0	0	0	0	504
4	0	0	0	0	552
5	0	0	0	0	493
6	0	0	0	0	485
7	0	0	0	0	498
8	0	0	0	0	537
9	0	0	0	0	487
10	0	0	0	0	533
11	0	0	0	0	525
12	0	0	0	0	508
13	0	0	0	0	541
14	0	0	0	0	530
15	0	0	0	0	489
0	0	0	0	0	487
1	0	0	0	0	515
2	0	0	0	0	521
3	0	0	0	0	459
4	0	0	0	0	576
5	0	0	0	0	477
6	0	0	0	0	494
7	0	0	0	0	582
8	0	0	0	0	527
9	0	0	0	0	487
10	0	0	0	0	518
11	0	0	0	0	515
12	0	0	0	0	512
13	0	0	0	0	536
14	0	0	0	0	511
15	0	0	0	0	474
0	0	0	0	0	600
1	0	0	0	0	467
2	0	0	0	0	535
3	0	0	0	0	498
4	0	0	0	0	530
5	0	0	0	0	520
6	0	0	0	0	540
7	0	0	0	0	485
8	0	0	0	0	539
9	0	0	0	0	472
10	0	0	0	0	544
11	0	0	0	0	497
12	0	0	0	0	488
13	0	0	0	0	496
14	0	0	0	0	521
15	0	0	0	0	517
0	0	0	0	0	539
1	0	0	0	0	450
2	0	0	0	0	552
3	0	0	0	0	510
4	0	0	0	0	502
5	0	0	0	0	479
6	0	0	0	0	560
7	0	0	0	0	524
8	0	0	0	0	541
9	0	0	0	0	472
10	0	0	0	0	551
11	0	0	0	0	499
12	0	0	0	0	522
13	0	0	0	0	505
14	0	0	0	0	516
15	0	0	0	0	483
0	0	0	0	0	532
1	0	0	0	0	503
2	0	0	0	0	543
3	0	0	0	0	458
4	0	0	0	0	541
5	0	0	0	0	486
6	0	0	0	0	516
7	0	0	0	0	561
8	0	0	0	0	514
9	0	0	0	0	489
10	0	0	0	0	542
11	0	0	0	0	476
12	0	0	0	0	536
13	0	0	0	0	473
14	0	0	0	0	522
15	0	0	0	0	511
0	0	0	0	0	531
1	0	0	0	0	491
2	0	0	0	0	525
3	0	0	0	0	508
4	0	0	0	0	513
5	0	0	0	0	490
6	0	0	0	0	527
7	0	0	0	0	495
8	0	0	0	0	537
9	0	0	0	0	502
10	0	0	0	0	533
11	0	0	0	0	506
12	0	0	0	0	525
13	0	0	0	0	503
14	0	0	0	0	530
15	0	0	0	0	495
0	0	0	0	0	523
1	0	0	0	0	492
2	0	0	0	0	494
3	0	0	0	0	455
4	0	0	0	0	539
5	0	0	0	0	514
6	0	0	0	0	536
7	0	0	0	0	497
8	0	0	0	0	540
9	0	0	0	0	511
10	0	0	0	0	522
11	0	0	0	0	500
12	0	0	0	0	515
13	0	0	0	0	511
14	0	0	0	0	510
15	0	0	0	0	508
0	0	0	0	0	527
1	0	0	0	0	475
2	0	0	0	0	531
3	0	0	0	0	481
4	0	0	0	0	554
5	0	0	0	0	510
6	0	0	0	0	527
7	0	0	0	0	504
8	0	0	0	0	536
9	0	0	0	0	498
10	0	0	0	0	525
11	0	0	0	0	496
12	0	0	0	0	487
13	0	0	0	0	511
14	0	0	0	0	522
15	0	0	0	0	508
0	0	0	0	0	509
1	0	0	0	0	514
2	0	0	0	0	532
3	0	0	0	0	492
4	0	0	0	0	513
5	0	0	0	0	517
6	0	0	0	0	523
7	0	0	0	0	487
8	0	0	0	0	529
9	0	0	0	0	536
10	0	0	0	0	535
11	0	0	0	0	520
12	0	0	0	0	531
13	0	0	0	0	494
14	0	0	0	0	553
15	0	0	0	0	482
0	0	0	0	0	520
1	0	0	0	0	516
2	0	0	0	0	524
3	0	0	0	0	479
4	0	0	0	0	510
5	0	0	0	0	494
6	0	0	0	0	528
7	0	0	0	0	498
8	0	0	0	0	522
9	0	0	0	0	556
10	0	0	0	0	518
11	0	0	0	0	474
12	0	0	0	0	565
13	0	0	0	0	500
14	0	0	0	0	557
15	0	0	0	0	488
0	0	0	0	0	536
1	0	0	0	0	507
2	0	0	0	0	544
3	0	0	0	0	500
4	0	0	0	0	543
5	0	0	0	0	464
6	0	0	0	0	516
7	0	0	0	0	481
8	0	0	0	0	528
9	0	0	0	0	505
10	0	0	0	0	526
11	0	0	0	0	497
12	0	0	0	0	545
13	0	0	0	0	469
14	0	0	0	0	549
15	0	0	0	0	491
0	0	0	0	0	555
1	0	0	0	0	508
2	0	0	0	0	527
3	0	0	0	0	493
4	0	0	0	0	531
5	0	0	0	0	497
6	0	0	0	0	533
7	0	0	0	0	494
8	0	0	0	0	507
9	0	0	0	0	495
10	0	0	0	0	529
11	0	0	0	0	493
12	0	0	0	0	524
13	0	0	0	0	504
14	0	0	0	0	514
15	0	0	0	0	490
0	0	0	0	0	522
1	0	0	0	0	504
2	0	0	0	0	519
3	0	0	0	0	495
4	0	0	0	0	488
5	0	0	0	0	485
6	0	0	0	0	523
7	0	0	0	0	519
8	0	0	0	0	533
9	0	0	0	0	490
10	0	0	0	0	542
11	0	0	0	0	509
12	0	0	0	0	481
13	0	0	0	0	469
14	0	0	0	0	521
15	0	0	0	0	487
0	0	0	0	0	521
1	0	0	0	0	499
2	0	0	0	0	528
3	0	0	0	0	493
4	0	0	0	0	544
5	0	0	0	0	505
6	0	0	0	0	524
7	0	0	0	0	474
8	0	0	0	0	543
9	0	0	0	0	502
10	0	0	0	0	518
11	0	0	0	0	453
12	0	0	0	0	583
13	0	0	0	0	486
14	0	0	0	0	507
15	0	0	0	0	503
0	0	0	0	0	547
1	0	0	0	0	551
2	0	0	0	0	511
3	0	0	0	0	507
4	0	0	0	0	545
5	0	0	0	0	743
6	0	0	0	0	600
7	0	0	0	0	519
8	0	0	0	0	549
9	0	0	0	0	231
10	0	0	0	0	602
11	0	0	0	0	672
12	0	0	0	0	702
13	0	0	0	0	483
14	0	0	0	0	639
15	0	0	0	0	219
0	0	0	0	0	1022
1	0	0	0	0	393
2	0	0	0	0	479
3	0	0	0	0	439
4	0	0	0	0	0
5	0	0	0	0	1022
6	0	0	0	0	606
7	0	0	0	0	1022
8	0	0	0	0	297
9	0	0	0	0	398
10	0	0	0	0	679
11	0	0	0	0	42
12	0	0	0	0	814
13	0	0	0	0	942
14	0	0	0	0	129
15	0	0	0	0	21
0	0	0	0	0	1022
1	0	0	0	0	455
2	0	0	0	0	806
3	0	0	0	0	296
4	0	0	0	0	219
5	0	0	0	0	237
6	0	0	0	0	869
7	0	0	0	0	246
8	0	0	0	0	377
9	0	0	0	0	299
10	0	0	0	0	207
11	0	0	0	0	670
12	0	0	0	0	344
13	0	0	0	0	505
14	0	0	0	0	404
15	0	0	0	0	696
0	0	0	0	0	352
1	0	0	0	0	372
2	0	0	0	0	888
3	0	0	0	0	544
4	0	0	0	0	476
5	0	0	0	0	462
6	0	0	0	0	489
7	0	0	0	0	659
8	0	0	0	0	383
9	0	0	0	0	940
10	0	0	0	0	171
11	0	0	0	0	624
12	0	0	0	0	438
13	0	0	0	0	116
14	0	0	0	0	643
15	0	0	0	0	475
0	0	0	0	0	36
1	0	0	0	0	625
2	0	0	0	0	191
3	0	0	0	0	488
4	0	0	0	0	635
5	0	0	0	0	364
6	0	0	0	0	515
7	0	0	0	0	611
8	0	0	0	0	470
9	0	0	0	0	464
10	0	0	0	0	515
11	0	0	0	0	643
12	0	0	0	0	536
13	0	0	0	0	477
14	0	0	0	0	643
15	0	0	0	0	464
0	0	0	0	0	568
1	0	0	0	0	512
2	0	0	0	0	492
3	0	0	0	0	600
4	0	0	0	0	519
5	0	0	0	0	476
6	0	0	0	0	509
7	0	0	0	0	482
8	0	0	0	0	520
9	0	0	0	0	488
10	0	0	0	0	592
11	0	0	0	0	493
12	0	0	0	0	511
13	0	0	0	0	484
14	0	0	0	0	553
15	0	0	0	0	539
0	0	0	0	0	499
1	0	0	0	0	517
2	0	0	0	0	503
3	0	0	0	0	489
4	0	0	0	0	549
5	0	0	0	0	499
6	0	0	0	0	486
7	0	0	0	0	516
8	0	0	0	0	500
9	0	0	0	0	510
10	0	0	0	0	515
11	0	0	0	0	514
12	0	0	0	0	499
13	0	0	0	0	545
14	0	0	0	0	500
15	0	0	0	0	508
0	0	0	0	0	531
1	0	0	0	0	513
2	0	0	0	0	501
3	0	0	0	0	533
4	0	0	0	0	512
5	0	0	0	0	484
6	0	0	0	0	523
7	0	0	0	0	498
8	0	0	0	0	497
9	0	0	0	0	526
10	0	0	0	0	511
11	0	0	0	0	494
12	0	0	0	0	538
13	0	0	0	0	501
14	0	0	0	0	493
15	0	0	0	0	582
0	0	0	0	0	472
1	0	0	0	0	561
2	0	0	0	0	506
3	0	0	0	0	512
4	0	0	0	0	508
5	0	0	0	0	505
6	0	0	0	0	544
7	0	0	0	0	500
8	0	0	0	0	521
9	0	0	0	0	483
10	0	0	0	0	515
11	0	0	0	0	493
12	0	0	0	0	510
13	0	0	0	0	516
14	0	0	0	0	492
15	0	0	0	0	524
0	0	0	0	0	542
1	0	0	0	0	496
2	0	0	0	0	497
3	0	0	0	0	528
4	0	0	0	0	496
5	0	0	0	0	494
6	0	0	0	0	568
7	0	0	0	0	505
8	0	0	0	0	520
9	0	0	0	0	542
10	0	0	0	0	511
11	0	0	0	0	504
12	0	0	0	0	526
13	0	0	0	0	490
14	0	0	0	0	550
15	0	0	0	0	475
0	0	0	0	0	446
1	0	0	0	0	556
2	0	0	0	0	509
3	0	0	0	0	499
4	0	0	0	0	504
5	0	0	0	0	522
6	0	0	0	0	531
7	0	0	0	0	528
8	0	0	0	0	516
9	0	0	0	0	475
10	0	0	0	0	531
11	0	0	0	0	500
12	0	0	0	0	518
13	0	0	0	0	526
14	0	0	0	0	501
15	0	0	0	0	556
0	0	0	0	0	500
1	0	0	0	0	495
2	0	0	0	0	532
3	0	0	0	0	498
4	0	0	0	0	502
5	0	0	0	0	506
