# OpenSignals Text File Format
# {"CC:78:AB:5E:8E:CE":{"sensor":["RAW"],"device name":"CC:78:AB:5E:8E:CE","column":["nSeq","I1","I2","O1","O2","A1"],"sync interval":2,"time":"12:18:58","comments":"","device connection":"BLECC:78:AB:5E:8E:CE","channels":[1],"date":"2022-04-28","mode":0,"digital IO":[0,0,1,1],"firmware version":0,"device":"bitalino_rev","position":0,"sampling rate":100,"label":["A1"],"resolution":[10],"special":[{}]}}
# EndOfHeader
0	0	0	0	0	371
1	0	0	0	0	625
2	0	0	0	0	396
3	0	0	0	0	649
4	0	0	0	0	372
5	0	0	0	0	631
6	0	0	0	0	364
7	0	0	0	0	652
8	0	0	0	0	372
9	0	0	0	0	633
10	0	0	0	0	385
11	0	0	0	0	641
12	0	0	0	0	378
13	0	0	0	0	632
14	0	0	0	0	394
15	0	0	0	0	641
0	0	0	0	0	371
1	0	0	0	0	624
2	0	0	0	0	373
3	0	0	0	0	654
4	0	0	0	0	381
5	0	0	0	0	633
6	0	0	0	0	367
7	0	0	0	0	623
8	0	0	0	0	385
9	0	0	0	0	666
10	0	0	0	0	367
11	0	0	0	0	614
12	0	0	0	0	377
13	0	0	0	0	648
14	0	0	0	0	379
15	0	0	0	0	623
0	0	0	0	0	409
1	0	0	0	0	641
2	0	0	0	0	381
3	0	0	0	0	617
4	0	0	0	0	377
5	0	0	0	0	653
6	0	0	0	0	376
7	0	0	0	0	644
8	0	0	0	0	369
9	0	0	0	0	645
10	0	0	0	0	358
11	0	0	0	0	647
12	0	0	0	0	353
13	0	0	0	0	643
14	0	0	0	0	385
15	0	0	0	0	644
0	0	0	0	0	390
1	0	0	0	0	655
2	0	0	0	0	383
3	0	0	0	0	619
4	0	0	0	0	360
5	0	0	0	0	642
6	0	0	0	0	372
7	0	0	0	0	674
8	0	0	0	0	359
9	0	0	0	0	710
10	0	0	0	0	380
11	0	0	0	0	642
12	0	0	0	0	398
13	0	0	0	0	643
14	0	0	0	0	371
15	0	0	0	0	647
0	0	0	0	0	374
1	0	0	0	0	614
2	0	0	0	0	381
3	0	0	0	0	636
4	0	0	0	0	385
5	0	0	0	0	651
6	0	0	0	0	363
7	0	0	0	0	728
8	0	0	0	0	335
9	0	0	0	0	644
10	0	0	0	0	360
11	0	0	0	0	662
12	0	0	0	0	375
13	0	0	0	0	652
14	0	0	0	0	382
15	0	0	0	0	667
0	0	0	0	0	366
1	0	0	0	0	640
2	0	0	0	0	354
3	0	0	0	0	658
4	0	0	0	0	388
5	0	0	0	0	635
6	0	0	0	0	366
7	0	0	0	0	646
8	0	0	0	0	398
9	0	0	0	0	647
10	0	0	0	0	423
11	0	0	0	0	648
12	0	0	0	0	352
13	0	0	0	0	647
14	0	0	0	0	405
15	0	0	0	0	630
0	0	0	0	0	382
1	0	0	0	0	655
2	0	0	0	0	384
3	0	0	0	0	665
4	0	0	0	0	372
5	0	0	0	0	618
6	0	0	0	0	360
7	0	0	0	0	641
8	0	0	0	0	347
9	0	0	0	0	647
10	0	0	0	0	344
11	0	0	0	0	662
12	0	0	0	0	368
13	0	0	0	0	636
14	0	0	0	0	413
15	0	0	0	0	654
0	0	0	0	0	380
1	0	0	0	0	655
2	0	0	0	0	382
3	0	0	0	0	661
4	0	0	0	0	372
5	0	0	0	0	643
6	0	0	0	0	362
7	0	0	0	0	615
8	0	0	0	0	376
9	0	0	0	0	645
10	0	0	0	0	395
11	0	0	0	0	644
12	0	0	0	0	367
13	0	0	0	0	644
14	0	0	0	0	416
15	0	0	0	0	659
0	0	0	0	0	376
1	0	0	0	0	650
2	0	0	0	0	389
3	0	0	0	0	636
4	0	0	0	0	389
5	0	0	0	0	669
6	0	0	0	0	388
7	0	0	0	0	658
8	0	0	0	0	374
9	0	0	0	0	625
10	0	0	0	0	361
11	0	0	0	0	624
12	0	0	0	0	401
13	0	0	0	0	684
14	0	0	0	0	373
15	0	0	0	0	637
0	0	0	0	0	394
1	0	0	0	0	670
2	0	0	0	0	379
3	0	0	0	0	710
4	0	0	0	0	399
5	0	0	0	0	644
6	0	0	0	0	442
7	0	0	0	0	642
8	0	0	0	0	382
9	0	0	0	0	643
10	0	0	0	0	372
11	0	0	0	0	664
12	0	0	0	0	368
13	0	0	0	0	658
14	0	0	0	0	390
15	0	0	0	0	667
0	0	0	0	0	387
1	0	0	0	0	623
2	0	0	0	0	384
3	0	0	0	0	640
4	0	0	0	0	382
5	0	0	0	0	631
6	0	0	0	0	389
7	0	0	0	0	643
8	0	0	0	0	411
9	0	0	0	0	615
10	0	0	0	0	403
11	0	0	0	0	642
12	0	0	0	0	384
13	0	0	0	0	622
14	0	0	0	0	379
15	0	0	0	0	645
0	0	0	0	0	353
1	0	0	0	0	655
2	0	0	0	0	422
3	0	0	0	0	592
4	0	0	0	0	415
5	0	0	0	0	616
6	0	0	0	0	384
7	0	0	0	0	628
8	0	0	0	0	393
9	0	0	0	0	651
10	0	0	0	0	363
11	0	0	0	0	627
12	0	0	0	0	401
13	0	0	0	0	695
14	0	0	0	0	362
15	0	0	0	0	628
0	0	0	0	0	405
1	0	0	0	0	639
2	0	0	0	0	411
3	0	0	0	0	611
4	0	0	0	0	417
5	0	0	0	0	601
6	0	0	0	0	410
7	0	0	0	0	640
8	0	0	0	0	396
9	0	0	0	0	625
10	0	0	0	0	407
11	0	0	0	0	669
12	0	0	0	0	388
13	0	0	0	0	615
14	0	0	0	0	409
15	0	0	0	0	601
0	0	0	0	0	393
1	0	0	0	0	623
2	0	0	0	0	427
3	0	0	0	0	599
4	0	0	0	0	408
5	0	0	0	0	593
6	0	0	0	0	459
7	0	0	0	0	619
8	0	0	0	0	403
9	0	0	0	0	601
10	0	0	0	0	448
11	0	0	0	0	590
12	0	0	0	0	424
13	0	0	0	0	590
14	0	0	0	0	426
15	0	0	0	0	568
0	0	0	0	0	472
1	0	0	0	0	597
2	0	0	0	0	433
3	0	0	0	0	603
4	0	0	0	0	432
5	0	0	0	0	634
6	0	0	0	0	390
7	0	0	0	0	584
8	0	0	0	0	365
9	0	0	0	0	629
10	0	0	0	0	484
11	0	0	0	0	699
12	0	0	0	0	438
13	0	0	0	0	596
14	0	0	0	0	432
15	0	0	0	0	1022
0	0	0	0	0	175
1	0	0	0	0	77
2	0	0	0	0	200
3	0	0	0	0	572
4	0	0	0	0	795
5	0	0	0	0	489
6	0	0	0	0	311
7	0	0	0	0	575
8	0	0	0	0	480
9	0	0	0	0	530
10	0	0	0	0	440
11	0	0	0	0	549
12	0	0	0	0	726
13	0	0	0	0	547
14	0	0	0	0	432
15	0	0	0	0	551
0	0	0	0	0	468
1	0	0	0	0	751
2	0	0	0	0	424
3	0	0	0	0	491
4	0	0	0	0	357
5	0	0	0	0	614
6	0	0	0	0	421
7	0	0	0	0	507
8	0	0	0	0	528
9	0	0	0	0	541
10	0	0	0	0	445
11	0	0	0	0	683
12	0	0	0	0	751
13	0	0	0	0	969
14	0	0	0	0	305
15	0	0	0	0	844
0	0	0	0	0	417
1	0	0	0	0	450
2	0	0	0	0	304
3	0	0	0	0	529
4	0	0	0	0	402
5	0	0	0	0	554
6	0	0	0	0	413
7	0	0	0	0	615
8	0	0	0	0	670
9	0	0	0	0	508
10	0	0	0	0	437
11	0	0	0	0	556
12	0	0	0	0	453
13	0	0	0	0	551
14	0	0	0	0	483
15	0	0	0	0	583
0	0	0	0	0	461
1	0	0	0	0	511
2	0	0	0	0	509
3	0	0	0	0	563
4	0	0	0	0	480
5	0	0	0	0	569
6	0	0	0	0	457
7	0	0	0	0	588
8	0	0	0	0	419
9	0	0	0	0	575
10	0	0	0	0	443
11	0	0	0	0	570
12	0	0	0	0	461
13	0	0	0	0	585
14	0	0	0	0	431
15	0	0	0	0	561
0	0	0	0	0	469
1	0	0	0	0	592
2	0	0	0	0	429
3	0	0	0	0	534
4	0	0	0	0	505
5	0	0	0	0	591
6	0	0	0	0	461
7	0	0	0	0	562
8	0	0	0	0	434
9	0	0	0	0	566
10	0	0	0	0	560
11	0	0	0	0	526
12	0	0	0	0	462
13	0	0	0	0	544
14	0	0	0	0	487
15	0	0	0	0	532
0	0	0	0	0	440
1	0	0	0	0	540
2	0	0	0	0	475
3	0	0	0	0	568
4	0	0	0	0	511
5	0	0	0	0	611
6	0	0	0	0	438
7	0	0	0	0	551
8	0	0	0	0	447
9	0	0	0	0	587
10	0	0	0	0	482
11	0	0	0	0	511
12	0	0	0	0	488
13	0	0	0	0	547
14	0	0	0	0	439
15	0	0	0	0	732
0	0	0	0	0	451
1	0	0	0	0	518
2	0	0	0	0	503
3	0	0	0	0	497
4	0	0	0	0	467
5	0	0	0	0	586
6	0	0	0	0	486
7	0	0	0	0	711
8	0	0	0	0	446
9	0	0	0	0	479
10	0	0	0	0	476
11	0	0	0	0	513
12	0	0	0	0	463
13	0	0	0	0	562
14	0	0	0	0	487
15	0	0	0	0	543
0	0	0	0	0	464
1	0	0	0	0	535
2	0	0	0	0	465
3	0	0	0	0	520
4	0	0	0	0	448
5	0	0	0	0	551
6	0	0	0	0	552
7	0	0	0	0	484
8	0	0	0	0	505
9	0	0	0	0	563
10	0	0	0	0	444
11	0	0	0	0	474
12	0	0	0	0	484
13	0	0	0	0	587
14	0	0	0	0	481
15	0	0	0	0	519
0	0	0	0	0	491
1	0	0	0	0	509
2	0	0	0	0	503
3	0	0	0	0	531
4	0	0	0	0	497
5	0	0	0	0	533
6	0	0	0	0	464
7	0	0	0	0	554
8	0	0	0	0	508
9	0	0	0	0	554
10	0	0	0	0	516
11	0	0	0	0	517
12	0	0	0	0	455
13	0	0	0	0	511
14	0	0	0	0	527
15	0	0	0	0	598
0	0	0	0	0	516
1	0	0	0	0	478
2	0	0	0	0	455
3	0	0	0	0	554
4	0	0	0	0	506
5	0	0	0	0	543
6	0	0	0	0	519
7	0	0	0	0	523
8	0	0	0	0	473
9	0	0	0	0	548
10	0	0	0	0	469
11	0	0	0	0	514
12	0	0	0	0	502
13	0	0	0	0	563
14	0	0	0	0	512
15	0	0	0	0	519
0	0	0	0	0	454
1	0	0	0	0	528
2	0	0	0	0	460
3	0	0	0	0	546
4	0	0	0	0	530
5	0	0	0	0	549
6	0	0	0	0	492
7	0	0	0	0	548
8	0	0	0	0	479
9	0	0	0	0	526
10	0	0	0	0	510
11	0	0	0	0	532
12	0	0	0	0	487
13	0	0	0	0	547
14	0	0	0	0	488
15	0	0	0	0	526
0	0	0	0	0	501
1	0	0	0	0	530
2	0	0	0	0	474
3	0	0	0	0	555
4	0	0	0	0	479
5	0	0	0	0	542
6	0	0	0	0	497
7	0	0	0	0	537
8	0	0	0	0	489
9	0	0	0	0	545
10	0	0	0	0	488
11	0	0	0	0	546
12	0	0	0	0	490
13	0	0	0	0	540
14	0	0	0	0	484
15	0	0	0	0	555
0	0	0	0	0	513
1	0	0	0	0	537
2	0	0	0	0	467
3	0	0	0	0	540
4	0	0	0	0	496
5	0	0	0	0	525
6	0	0	0	0	480
7	0	0	0	0	535
8	0	0	0	0	480
9	0	0	0	0	516
10	0	0	0	0	516
11	0	0	0	0	557
12	0	0	0	0	450
13	0	0	0	0	589
14	0	0	0	0	447
15	0	0	0	0	524
0	0	0	0	0	478
1	0	0	0	0	537
2	0	0	0	0	502
3	0	0	0	0	530
4	0	0	0	0	486
5	0	0	0	0	566
6	0	0	0	0	474
7	0	0	0	0	519
8	0	0	0	0	469
9	0	0	0	0	564
10	0	0	0	0	470
11	0	0	0	0	535
12	0	0	0	0	495
13	0	0	0	0	569
14	0	0	0	0	475
15	0	0	0	0	540
0	0	0	0	0	475
1	0	0	0	0	526
2	0	0	0	0	493
3	0	0	0	0	515
4	0	0	0	0	480
5	0	0	0	0	542
6	0	0	0	0	504
7	0	0	0	0	517
8	0	0	0	0	482
9	0	0	0	0	544
10	0	0	0	0	491
11	0	0	0	0	536
12	0	0	0	0	523
13	0	0	0	0	536
14	0	0	0	0	468
15	0	0	0	0	563
0	0	0	0	0	489
1	0	0	0	0	526
2	0	0	0	0	513
3	0	0	0	0	525
4	0	0	0	0	511
5	0	0	0	0	519
6	0	0	0	0	490
7	0	0	0	0	531
8	0	0	0	0	513
9	0	0	0	0	506
10	0	0	0	0	492
11	0	0	0	0	557
12	0	0	0	0	487
13	0	0	0	0	521
14	0	0	0	0	504
15	0	0	0	0	581
0	0	0	0	0	473
1	0	0	0	0	480
2	0	0	0	0	527
3	0	0	0	0	496
4	0	0	0	0	499
5	0	0	0	0	520
6	0	0	0	0	525
7	0	0	0	0	495
8	0	0	0	0	480
9	0	0	0	0	562
10	0	0	0	0	492
11	0	0	0	0	526
12	0	0	0	0	487
13	0	0	0	0	485
14	0	0	0	0	596
15	0	0	0	0	514
0	0	0	0	0	479
1	0	0	0	0	580
2	0	0	0	0	477
3	0	0	0	0	513
4	0	0	0	0	529
5	0	0	0	0	561
6	0	0	0	0	500
7	0	0	0	0	527
8	0	0	0	0	526
9	0	0	0	0	509
10	0	0	0	0	514
11	0	0	0	0	540
12	0	0	0	0	531
13	0	0	0	0	461
14	0	0	0	0	519
15	0	0	0	0	552
0	0	0	0	0	577
1	0	0	0	0	535
2	0	0	0	0	457
3	0	0	0	0	492
4	0	0	0	0	486
5	0	0	0	0	532
6	0	0	0	0	441
7	0	0	0	0	528
8	0	0	0	0	508
9	0	0	0	0	545
10	0	0	0	0	467
11	0	0	0	0	557
12	0	0	0	0	470
13	0	0	0	0	513
14	0	0	0	0	461
15	0	0	0	0	565
0	0	0	0	0	480
1	0	0	0	0	512
2	0	0	0	0	524
3	0	0	0	0	516
4	0	0	0	0	501
5	0	0	0	0	551
6	0	0	0	0	485
7	0	0	0	0	486
8	0	0	0	0	504
9	0	0	0	0	561
10	0	0	0	0	476
11	0	0	0	0	539
12	0	0	0	0	480
13	0	0	0	0	517
14	0	0	0	0	487
15	0	0	0	0	513
0	0	0	0	0	517
1	0	0	0	0	494
2	0	0	0	0	483
3	0	0	0	0	545
4	0	0	0	0	512
5	0	0	0	0	506
6	0	0	0	0	524
7	0	0	0	0	583
8	0	0	0	0	449
9	0	0	0	0	534
10	0	0	0	0	463
11	0	0	0	0	530
12	0	0	0	0	537
13	0	0	0	0	540
14	0	0	0	0	467
15	0	0	0	0	536
0	0	0	0	0	467
1	0	0	0	0	446
2	0	0	0	0	554
3	0	0	0	0	614
4	0	0	0	0	502
5	0	0	0	0	409
6	0	0	0	0	562
7	0	0	0	0	562
8	0	0	0	0	464
9	0	0	0	0	553
10	0	0	0	0	376
11	0	0	0	0	614
12	0	0	0	0	498
13	0	0	0	0	436
14	0	0	0	0	650
15	0	0	0	0	482
0	0	0	0	0	319
1	0	0	0	0	637
2	0	0	0	0	413
3	0	0	0	0	494
4	0	0	0	0	695
5	0	0	0	0	325
6	0	0	0	0	554
7	0	0	0	0	632
8	0	0	0	0	529
9	0	0	0	0	0
10	0	0	0	0	991
11	0	0	0	0	0
12	0	0	0	0	823
13	0	0	0	0	664
14	0	0	0	0	0
15	0	0	0	0	1022
0	0	0	0	0	310
1	0	0	0	0	226
2	0	0	0	0	859
3	0	0	0	0	638
4	0	0	0	0	1001
5	0	0	0	0	0
6	0	0	0	0	1022
7	0	0	0	0	0
8	0	0	0	0	1022
9	0	0	0	0	0
10	0	0	0	0	928
11	0	0	0	0	1022
12	0	0	0	0	512
13	0	0	0	0	1022
14	0	0	0	0	0
15	0	0	0	0	307
0	0	0	0	0	542
1	0	0	0	0	1022
2	0	0	0	0	621
3	0	0	0	0	431
4	0	0	0	0	1022
5	0	0	0	0	380
6	0	0	0	0	405
7	0	0	0	0	774
8	0	0	0	0	262
9	0	0	0	0	341
10	0	0	0	0	204
11	0	0	0	0	152
12	0	0	0	0	533
13	0	0	0	0	0
14	0	0	0	0	618
15	0	0	0	0	838
0	0	0	0	0	395
1	0	0	0	0	131
2	0	0	0	0	1022
3	0	0	0	0	1022
4	0	0	0	0	603
5	0	0	0	0	1022
6	0	0	0	0	502
7	0	0	0	0	117
8	0	0	0	0	244
9	0	0	0	0	1022
10	0	0	0	0	376
11	0	0	0	0	998
12	0	0	0	0	751
13	0	0	0	0	924
14	0	0	0	0	273
15	0	0	0	0	273
0	0	0	0	0	678
1	0	0	0	0	480
2	0	0	0	0	161
3	0	0	0	0	542
4	0	0	0	0	229
5	0	0	0	0	652
6	0	0	0	0	421
7	0	0	0	0	891
8	0	0	0	0	598
9	0	0	0	0	0
10	0	0	0	0	583
11	0	0	0	0	0
12	0	0	0	0	675
13	0	0	0	0	467
14	0	0	0	0	542
15	0	0	0	0	619
0	0	0	0	0	842
1	0	0	0	0	215
2	0	0	0	0	895
3	0	0	0	0	523
4	0	0	0	0	834
5	0	0	0	0	390
6	0	0	0	0	994
7	0	0	0	0	422
8	0	0	0	0	470
9	0	0	0	0	671
10	0	0	0	0	797
11	0	0	0	0	364
12	0	0	0	0	529
13	0	0	0	0	358
14	0	0	0	0	659
15	0	0	0	0	229
0	0	0	0	0	668
1	0	0	0	0	429
2	0	0	0	0	563
3	0	0	0	0	382
4	0	0	0	0	482
5	0	0	0	0	623
6	0	0	0	0	465
7	0	0	0	0	422
8	0	0	0	0	431
9	0	0	0	0	487
10	0	0	0	0	531
11	0	0	0	0	513
12	0	0	0	0	460
13	0	0	0	0	519
14	0	0	0	0	474
15	0	0	0	0	546
0	0	0	0	0	504
1	0	0	0	0	502
2	0	0	0	0	547
3	0	0	0	0	486
4	0	0	0	0	499
5	0	0	0	0	517
6	0	0	0	0	505
7	0	0	0	0	536
8	0	0	0	0	486
9	0	0	0	0	512
10	0	0	0	0	493
11	0	0	0	0	531
12	0	0	0	0	497
13	0	0	0	0	498
14	0	0	0	0	502
15	0	0	0	0	567
0	0	0	0	0	532
1	0	0	0	0	540
2	0	0	0	0	509
3	0	0	0	0	527
4	0	0	0	0	487
5	0	0	0	0	528
6	0	0	0	0	495
7	0	0	0	0	525
8	0	0	0	0	559
9	0	0	0	0	525
10	0	0	0	0	487
11	0	0	0	0	557
12	0	0	0	0	498
13	0	0	0	0	533
14	0	0	0	0	503
15	0	0	0	0	524
0	0	0	0	0	480
1	0	0	0	0	582
2	0	0	0	0	475
3	0	0	0	0	508
4	0	0	0	0	512
5	0	0	0	0	512
6	0	0	0	0	522
7	0	0	0	0	519
8	0	0	0	0	518
9	0	0	0	0	506
10	0	0	0	0	525
11	0	0	0	0	423
12	0	0	0	0	505
13	0	0	0	0	552
14	0	0	0	0	499
15	0	0	0	0	529
0	0	0	0	0	463
1	0	0	0	0	581
2	0	0	0	0	426
3	0	0	0	0	571
4	0	0	0	0	475
5	0	0	0	0	520
6	0	0	0	0	503
7	0	0	0	0	512
8	0	0	0	0	516
9	0	0	0	0	516
10	0	0	0	0	495
11	0	0	0	0	548
12	0	0	0	0	476
13	0	0	0	0	514
14	0	0	0	0	521
15	0	0	0	0	509
0	0	0	0	0	505
1	0	0	0	0	495
2	0	0	0	0	538
3	0	0	0	0	526
4	0	0	0	0	460
5	0	0	0	0	556
6	0	0	0	0	489
7	0	0	0	0	520
8	0	0	0	0	492
9	0	0	0	0	549
10	0	0	0	0	509
11	0	0	0	0	486
12	0	0	0	0	548
13	0	0	0	0	522
14	0	0	0	0	495
15	0	0	0	0	468
0	0	0	0	0	540
1	0	0	0	0	521
2	0	0	0	0	521
3	0	0	0	0	551
4	0	0	0	0	480
5	0	0	0	0	515
6	0	0	0	0	521
7	0	0	0	0	514
8	0	0	0	0	521
9	0	0	0	0	497
10	0	0	0	0	514
11	0	0	0	0	534
12	0	0	0	0	477
13	0	0	0	0	536
14	0	0	0	0	500
15	0	0	0	0	530
0	0	0	0	0	489
1	0	0	0	0	519
2	0	0	0	0	511
3	0	0	0	0	468
4	0	0	0	0	537
5	0	0	0	0	497
6	0	0	0	0	499
7	0	0	0	0	518
8	0	0	0	0	510
9	0	0	0	0	508
10	0	0	0	0	501
11	0	0	0	0	519
12	0	0	0	0	486
13	0	0	0	0	567
14	0	0	0	0	495
15	0	0	0	0	568
0	0	0	0	0	485
1	0	0	0	0	503
2	0	0	0	0	499
3	0	0	0	0	545
4	0	0	0	0	509
5	0	0	0	0	510
6	0	0	0	0	504
7	0	0	0	0	525
8	0	0	0	0	505
9	0	0	0	0	518
10	0	0	0	0	507
11	0	0	0	0	544
12	0	0	0	0	513
13	0	0	0	0	521
14	0	0	0	0	512
15	0	0	0	0	523
0	0	0	0	0	506
1	0	0	0	0	545
2	0	0	0	0	503
3	0	0	0	0	519
4	0	0	0	0	491
5	0	0	0	0	503
6	0	0	0	0	517
7	0	0	0	0	514
8	0	0	0	0	496
9	0	0	0	0	517
10	0	0	0	0	509
11	0	0	0	0	560
12	0	0	0	0	506
13	0	0	0	0	526
14	0	0	0	0	526
15	0	0	0	0	507
0	0	0	0	0	492
1	0	0	0	0	526
2	0	0	0	0	532
3	0	0	0	0	528
4	0	0	0	0	541
5	0	0	0	0	519
6	0	0	0	0	497
7	0	0	0	0	523
8	0	0	0	0	497
9	0	0	0	0	513
10	0	0	0	0	500
11	0	0	0	0	516
12	0	0	0	0	511
13	0	0	0	0	530
14	0	0	0	0	498
15	0	0	0	0	524
0	0	0	0	0	503
1	0	0	0	0	515
2	0	0	0	0	499
3	0	0	0	0	526
4	0	0	0	0	504
5	0	0	0	0	518
6	0	0	0	0	510
7	0	0	0	0	516
8	0	0	0	0	519
9	0	0	0	0	517
10	0	0	0	0	524
11	0	0	0	0	519
12	0	0	0	0	515
13	0	0	0	0	524
14	0	0	0	0	507
15	0	0	0	0	512
0	0	0	0	0	505
1	0	0	0	0	520
2	0	0	0	0	502
3	0	0	0	0	519
4	0	0	0	0	504
5	0	0	0	0	513
6	0	0	0	0	507
7	0	0	0	0	522
8	0	0	0	0	504
9	0	0	0	0	520
10	0	0	0	0	497
11	0	0	0	0	536
12	0	0	0	0	510
13	0	0	0	0	515
14	0	0	0	0	504
15	0	0	0	0	528
0	0	0	0	0	506
1	0	0	0	0	521
2	0	0	0	0	528
3	0	0	0	0	523
4	0	0	0	0	522
5	0	0	0	0	536
6	0	0	0	0	505
7	0	0	0	0	515
8	0	0	0	0	502
9	0	0	0	0	508
10	0	0	0	0	506
11	0	0	0	0	532
12	0	0	0	0	502
13	0	0	0	0	521
14	0	0	0	0	496
15	0	0	0	0	517
0	0	0	0	0	504
1	0	0	0	0	484
2	0	0	0	0	429
3	0	0	0	0	562
4	0	0	0	0	532
5	0	0	0	0	508
6	0	0	0	0	492
7	0	0	0	0	510
8	0	0	0	0	511
9	0	0	0	0	540
10	0	0	0	0	529
11	0	0	0	0	528
12	0	0	0	0	511
13	0	0	0	0	531
14	0	0	0	0	506
15	0	0	0	0	515
0	0	0	0	0	496
1	0	0	0	0	512
2	0	0	0	0	508
3	0	0	0	0	526
4	0	0	0	0	504
5	0	0	0	0	519
6	0	0	0	0	502
7	0	0	0	0	524
8	0	0	0	0	510
9	0	0	0	0	531
10	0	0	0	0	499
11	0	0	0	0	518
12	0	0	0	0	498
13	0	0	0	0	529
14	0	0	0	0	506
15	0	0	0	0	527
0	0	0	0	0	509
1	0	0	0	0	513
2	0	0	0	0	502
3	0	0	0	0	526
4	0	0	0	0	504
5	0	0	0	0	520
6	0	0	0	0	502
7	0	0	0	0	525
8	0	0	0	0	504
9	0	0	0	0	521
10	0	0	0	0	510
11	0	0	0	0	525
12	0	0	0	0	498
13	0	0	0	0	543
14	0	0	0	0	474
15	0	0	0	0	510
0	0	0	0	0	518
1	0	0	0	0	511
2	0	0	0	0	511
3	0	0	0	0	527
4	0	0	0	0	489
5	0	0	0	0	637
6	0	0	0	0	454
7	0	0	0	0	511
8	0	0	0	0	527
9	0	0	0	0	476
10	0	0	0	0	526
11	0	0	0	0	560
12	0	0	0	0	406
13	0	0	0	0	515
14	0	0	0	0	460
15	0	0	0	0	583
0	0	0	0	0	470
1	0	0	0	0	504
2	0	0	0	0	656
3	0	0	0	0	154
4	0	0	0	0	778
5	0	0	0	0	674
6	0	0	0	0	153
7	0	0	0	0	1014
8	0	0	0	0	0
9	0	0	0	0	1009
10	0	0	0	0	79
11	0	0	0	0	559
12	0	0	0	0	743
13	0	0	0	0	278
14	0	0	0	0	894
15	0	0	0	0	690
0	0	0	0	0	651
1	0	0	0	0	63
2	0	0	0	0	1022
3	0	0	0	0	320
4	0	0	0	0	652
5	0	0	0	0	0
6	0	0	0	0	1022
7	0	0	0	0	0
8	0	0	0	0	1022
9	0	0	0	0	0
10	0	0	0	0	1022
11	0	0	0	0	1014
12	0	0	0	0	425
13	0	0	0	0	541
14	0	0	0	0	1022
15	0	0	0	0	761
0	0	0	0	0	1022
1	0	0	0	0	0
2	0	0	0	0	479
3	0	0	0	0	0
4	0	0	0	0	1022
5	0	0	0	0	0
6	0	0	0	0	790
7	0	0	0	0	414
8	0	0	0	0	976
9	0	0	0	0	637
10	0	0	0	0	93
11	0	0	0	0	553
12	0	0	0	0	521
13	0	0	0	0	1022
14	0	0	0	0	689
15	0	0	0	0	0
0	0	0	0	0	510
1	0	0	0	0	683
2	0	0	0	0	523
3	0	0	0	0	605
4	0	0	0	0	838
5	0	0	0	0	88
6	0	0	0	0	272
7	0	0	0	0	558
8	0	0	0	0	292
9	0	0	0	0	193
10	0	0	0	0	273
11	0	0	0	0	24
12	0	0	0	0	0
13	0	0	0	0	391
14	0	0	0	0	944
15	0	0	0	0	771
0	0	0	0	0	0
1	0	0	0	0	701
2	0	0	0	0	452
3	0	0	0	0	1022
4	0	0	0	0	1016
5	0	0	0	0	1022
6	0	0	0	0	49
7	0	0	0	0	379
8	0	0	0	0	1022
9	0	0	0	0	956
10	0	0	0	0	0
11	0	0	0	0	364
12	0	0	0	0	275
13	0	0	0	0	419
14	0	0	0	0	830
15	0	0	0	0	0
0	0	0	0	0	229
1	0	0	0	0	1022
2	0	0	0	0	275
3	0	0	0	0	768
4	0	0	0	0	290
5	0	0	0	0	433
6	0	0	0	0	497
7	0	0	0	0	155
8	0	0	0	0	105
9	0	0	0	0	347
10	0	0	0	0	202
11	0	0	0	0	1022
12	0	0	0	0	244
13	0	0	0	0	839
14	0	0	0	0	717
15	0	0	0	0	476
0	0	0	0	0	926
1	0	0	0	0	425
2	0	0	0	0	522
3	0	0	0	0	769
4	0	0	0	0	336
5	0	0	0	0	553
6	0	0	0	0	0
7	0	0	0	0	482
8	0	0	0	0	442
9	0	0	0	0	473
10	0	0	0	0	898
11	0	0	0	0	560
12	0	0	0	0	638
13	0	0	0	0	495
14	0	0	0	0	788
15	0	0	0	0	439
0	0	0	0	0	466
1	0	0	0	0	464
2	0	0	0	0	663
3	0	0	0	0	530
4	0	0	0	0	506
5	0	0	0	0	505
6	0	0	0	0	527
7	0	0	0	0	514
8	0	0	0	0	523
9	0	0	0	0	507
10	0	0	0	0	518
11	0	0	0	0	511
12	0	0	0	0	500
13	0	0	0	0	493
14	0	0	0	0	514
15	0	0	0	0	509
0	0	0	0	0	522
1	0	0	0	0	521
2	0	0	0	0	551
3	0	0	0	0	538
4	0	0	0	0	490
5	0	0	0	0	612
6	0	0	0	0	548
7	0	0	0	0	444
8	0	0	0	0	468
9	0	0	0	0	600
10	0	0	0	0	489
11	0	0	0	0	496
12	0	0	0	0	515
13	0	0	0	0	444
14	0	0	0	0	504
15	0	0	0	0	605
0	0	0	0	0	529
1	0	0	0	0	560
2	0	0	0	0	540
3	0	0	0	0	539
4	0	0	0	0	462
5	0	0	0	0	531
6	0	0	0	0	509
7	0	0	0	0	494
8	0	0	0	0	490
9	0	0	0	0	544
10	0	0	0	0	501
11	0	0	0	0	492
12	0	0	0	0	563
13	0	0	0	0	482
14	0	0	0	0	513
15	0	0	0	0	527
0	0	0	0	0	506
1	0	0	0	0	515
2	0	0	0	0	502
3	0	0	0	0	536
4	0	0	0	0	536
5	0	0	0	0	503
6	0	0	0	0	460
7	0	0	0	0	535
8	0	0	0	0	498
9	0	0	0	0	499
10	0	0	0	0	504
11	0	0	0	0	502
12	0	0	0	0	542
13	0	0	0	0	493
14	0	0	0	0	528
15	0	0	0	0	500
0	0	0	0	0	513
1	0	0	0	0	509
2	0	0	0	0	511
3	0	0	0	0	608
4	0	0	0	0	523
5	0	0	0	0	464
6	0	0	0	0	515
7	0	0	0	0	516
8	0	0	0	0	522
9	0	0	0	0	511
10	0	0	0	0	505
11	0	0	0	0	551
12	0	0	0	0	508
13	0	0	0	0	535
14	0	0	0	0	521
15	0	0	0	0	492
0	0	0	0	0	593
1	0	0	0	0	495
2	0	0	0	0	495
3	0	0	0	0	524
4	0	0	0	0	508
5	0	0	0	0	505
6	0	0	0	0	479
7	0	0	0	0	548
8	0	0	0	0	528
9	0	0	0	0	453
10	0	0	0	0	545
11	0	0	0	0	507
12	0	0	0	0	501
13	0	0	0	0	517
14	0	0	0	0	516
15	0	0	0	0	518
0	0	0	0	0	507
1	0	0	0	0	514
2	0	0	0	0	508
3	0	0	0	0	498
4	0	0	0	0	536
5	0	0	0	0	527
6	0	0	0	0	515
7	0	0	0	0	509
8	0	0	0	0	515
9	0	0	0	0	521
10	0	0	0	0	518
11	0	0	0	0	500
12	0	0	0	0	508
13	0	0	0	0	508
14	0	0	0	0	518
15	0	0	0	0	553
0	0	0	0	0	512
1	0	0	0	0	516
2	0	0	0	0	518
3	0	0	0	0	515
4	0	0	0	0	504
5	0	0	0	0	513
6	0	0	0	0	518
7	0	0	0	0	502
8	0	0	0	0	518
9	0	0	0	0	510
10	0	0	0	0	512
11	0	0	0	0	498
12	0	0	0	0	521
13	0	0	0	0	511
14	0	0	0	0	522
15	0	0	0	0	503
0	0	0	0	0	519
1	0	0	0	0	511
2	0	0	0	0	516
3	0	0	0	0	500
4	0	0	0	0	513
5	0	0	0	0	504
6	0	0	0	0	516
7	0	0	0	0	518
8	0	0	0	0	518
9	0	0	0	0	508
10	0	0	0	0	513
11	0	0	0	0	511
12	0	0	0	0	511
13	0	0	0	0	515
14	0	0	0	0	512
15	0	0	0	0	514
0	0	0	0	0	519
1	0	0	0	0	506
2	0	0	0	0	516
3	0	0	0	0	516
4	0	0	0	0	513
5	0	0	0	0	510
6	0	0	0	0	517
7	0	0	0	0	505
8	0	0	0	0	517
9	0	0	0	0	507
10	0	0	0	0	518
11	0	0	0	0	519
12	0	0	0	0	513
13	0	0	0	0	505
14	0	0	0	0	518
15	0	0	0	0	507
0	0	0	0	0	524
1	0	0	0	0	506
2	0	0	0	0	516
3	0	0	0	0	505
4	0	0	0	0	514
5	0	0	0	0	506
6	0	0	0	0	523
7	0	0	0	0	510
8	0	0	0	0	515
9	0	0	0	0	505
10	0	0	0	0	516
11	0	0	0	0	508
12	0	0	0	0	516
13	0	0	0	0	508
14	0	0	0	0	518
15	0	0	0	0	502
0	0	0	0	0	521
1	0	0	0	0	494
2	0	0	0	0	517
3	0	0	0	0	544
4	0	0	0	0	483
5	0	0	0	0	517
6	0	0	0	0	510
7	0	0	0	0	501
8	0	0	0	0	483
9	0	0	0	0	513
10	0	0	0	0	536
11	0	0	0	0	509
12	0	0	0	0	529
13	0	0	0	0	533
14	0	0	0	0	475
15	0	0	0	0	507
0	0	0	0	0	497
1	0	0	0	0	514
2	0	0	0	0	527
3	0	0	0	0	577
4	0	0	0	0	571
5	0	0	0	0	487
6	0	0	0	0	506
7	0	0	0	0	519
8	0	0	0	0	424
9	0	0	0	0	563
10	0	0	0	0	560
11	0	0	0	0	359
12	0	0	0	0	601
13	0	0	0	0	549
14	0	0	0	0	323
15	0	0	0	0	665
0	0	0	0	0	460
1	0	0	0	0	414
2	0	0	0	0	583
3	0	0	0	0	481
4	0	0	0	0	584
5	0	0	0	0	676
6	0	0	0	0	193
7	0	0	0	0	691
8	0	0	0	0	507
9	0	0	0	0	489
10	0	0	0	0	706
11	0	0	0	0	256
12	0	0	0	0	699
13	0	0	0	0	717
14	0	0	0	0	350
15	0	0	0	0	765
0	0	0	0	0	65
1	0	0	0	0	777
2	0	0	0	0	507
3	0	0	0	0	328
4	0	0	0	0	745
5	0	0	0	0	357
6	0	0	0	0	648
7	0	0	0	0	684
8	0	0	0	0	343
9	0	0	0	0	1022
10	0	0	0	0	0
11	0	0	0	0	1022
12	0	0	0	0	190
13	0	0	0	0	1022
14	0	0	0	0	21
15	0	0	0	0	149
0	0	0	0	0	724
1	0	0	0	0	1022
2	0	0	0	0	930
3	0	0	0	0	0
4	0	0	0	0	1022
5	0	0	0	0	0
6	0	0	0	0	1022
7	0	0	0	0	1006
8	0	0	0	0	74
9	0	0	0	0	1022
10	0	0	0	0	0
11	0	0	0	0	659
12	0	0	0	0	337
13	0	0	0	0	680
14	0	0	0	0	416
15	0	0	0	0	313
0	0	0	0	0	822
1	0	0	0	0	1022
2	0	0	0	0	175
3	0	0	0	0	311
4	0	0	0	0	667
5	0	0	0	0	195
6	0	0	0	0	968
7	0	0	0	0	305
8	0	0	0	0	538
9	0	0	0	0	1022
10	0	0	0	0	45
11	0	0	0	0	743
12	0	0	0	0	960
13	0	0	0	0	380
14	0	0	0	0	500
15	0	0	0	0	1022
0	0	0	0	0	440
1	0	0	0	0	363
2	0	0	0	0	335
3	0	0	0	0	193
4	0	0	0	0	260
5	0	0	0	0	1008
6	0	0	0	0	195
7	0	0	0	0	1022
8	0	0	0	0	721
9	0	0	0	0	236
10	0	0	0	0	671
11	0	0	0	0	1022
12	0	0	0	0	434
13	0	0	0	0	447
14	0	0	0	0	78
15	0	0	0	0	516
0	0	0	0	0	862
1	0	0	0	0	535
2	0	0	0	0	0
3	0	0	0	0	657
4	0	0	0	0	100
5	0	0	0	0	262
6	0	0	0	0	0
7	0	0	0	0	568
8	0	0	0	0	1022
9	0	0	0	0	212
10	0	0	0	0	417
11	0	0	0	0	613
12	0	0	0	0	485
13	0	0	0	0	0
14	0	0	0	0	384
15	0	0	0	0	435
0	0	0	0	0	328
1	0	0	0	0	540
2	0	0	0	0	560
3	0	0	0	0	441
4	0	0	0	0	537
5	0	0	0	0	507
6	0	0	0	0	628
7	0	0	0	0	533
8	0	0	0	0	513
9	0	0	0	0	504
10	0	0	0	0	469
11	0	0	0	0	521
12	0	0	0	0	481
13	0	0	0	0	508
14	0	0	0	0	547
15	0	0	0	0	490
0	0	0	0	0	565
1	0	0	0	0	540
2	0	0	0	0	494
3	0	0	0	0	520
4	0	0	0	0	528
5	0	0	0	0	525
6	0	0	0	0	477
7	0	0	0	0	500
8	0	0	0	0	615
9	0	0	0	0	543
10	0	0	0	0	587
11	0	0	0	0	397
12	0	0	0	0	446
13	0	0	0	0	504
14	0	0	0	0	526
15	0	0	0	0	542
0	0	0	0	0	498
1	0	0	0	0	499
2	0	0	0	0	501
3	0	0	0	0	490
4	0	0	0	0	499
5	0	0	0	0	504
6	0	0	0	0	496
7	0	0	0	0	570
8	0	0	0	0	496
9	0	0	0	0	537
10	0	0	0	0	527
11	0	0	0	0	513
12	0	0	0	0	504
13	0	0	0	0	525
14	0	0	0	0	507
15	0	0	0	0	546
0	0	0	0	0	471
1	0	0	0	0	493
2	0	0	0	0	496
3	0	0	0	0	507
4	0	0	0	0	508
5	0	0	0	0	535
6	0	0	0	0	497
7	0	0	0	0	567
8	0	0	0	0	504
9	0	0	0	0	501
10	0	0	0	0	498
11	0	0	0	0	493
12	0	0	0	0	529
13	0	0	0	0	492
14	0	0	0	0	520
15	0	0	0	0	491
0	0	0	0	0	569
1	0	0	0	0	510
2	0	0	0	0	498
3	0	0	0	0	509
4	0	0	0	0	519
5	0	0	0	0	508
6	0	0	0	0	515
7	0	0	0	0	514
8	0	0	0	0	481
9	0	0	0	0	606
10	0	0	0	0	508
11	0	0	0	0	470
12	0	0	0	0	507
13	0	0	0	0	499
14	0	0	0	0	516
15	0	0	0	0	505
0	0	0	0	0	508
1	0	0	0	0	528
2	0	0	0	0	565
3	0	0	0	0	496
4	0	0	0	0	508
5	0	0	0	0	478
6	0	0	0	0	512
7	0	0	0	0	506
8	0	0	0	0	534
9	0	0	0	0	521
10	0	0	0	0	529
11	0	0	0	0	515
12	0	0	0	0	498
13	0	0	0	0	511
14	0	0	0	0	526
15	0	0	0	0	501
0	0	0	0	0	521
1	0	0	0	0	505
2	0	0	0	0	512
3	0	0	0	0	503
4	0	0	0	0	553
5	0	0	0	0	486
6	0	0	0	0	544
7	0	0	0	0	507
8	0	0	0	0	533
9	0	0	0	0	524
10	0	0	0	0	500
11	0	0	0	0	508
12	0	0	0	0	539
13	0	0	0	0	492
14	0	0	0	0	531
15	0	0	0	0	518
0	0	0	0	0	507
1	0	0	0	0	501
2	0	0	0	0	529
3	0	0	0	0	510
4	0	0	0	0	507
5	0	0	0	0	507
6	0	0	0	0	527
7	0	0	0	0	505
8	0	0	0	0	528
9	0	0	0	0	507
10	0	0	0	0	524
11	0	0	0	0	500
12	0	0	0	0	528
13	0	0	0	0	508
14	0	0	0	0	512
15	0	0	0	0	508
0	0	0	0	0	510
1	0	0	0	0	504
2	0	0	0	0	515
3	0	0	0	0	481
4	0	0	0	0	516
5	0	0	0	0	473
6	0	0	0	0	514
7	0	0	0	0	511
8	0	0	0	0	512
9	0	0	0	0	510
10	0	0	0	0	529
11	0	0	0	0	458
12	0	0	0	0	529
13	0	0	0	0	505
14	0	0	0	0	519
15	0	0	0	0	508
0	0	0	0	0	525
1	0	0	0	0	506
2	0	0	0	0	522
3	0	0	0	0	506
4	0	0	0	0	516
5	0	0	0	0	503
6	0	0	0	0	523
7	0	0	0	0	505
8	0	0	0	0	521
9	0	0	0	0	509
10	0	0	0	0	523
11	0	0	0	0	505
12	0	0	0	0	523
13	0	0	0	0	500
14	0	0	0	0	525
15	0	0	0	0	508
0	0	0	0	0	524
1	0	0	0	0	510
2	0	0	0	0	517
3	0	0	0	0	508
4	0	0	0	0	522
5	0	0	0	0	508
6	0	0	0	0	520
7	0	0	0	0	504
8	0	0	0	0	519
9	0	0	0	0	504
10	0	0	0	0	524
11	0	0	0	0	504
12	0	0	0	0	522
13	0	0	0	0	507
14	0	0	0	0	524
15	0	0	0	0	507
0	0	0	0	0	521
1	0	0	0	0	507
2	0	0	0	0	516
3	0	0	0	0	512
4	0	0	0	0	509
5	0	0	0	0	505
6	0	0	0	0	521
7	0	0	0	0	439
8	0	0	0	0	505
9	0	0	0	0	526
10	0	0	0	0	540
11	0	0	0	0	483
12	0	0	0	0	472
13	0	0	0	0	505
14	0	0	0	0	547
15	0	0	0	0	513
0	0	0	0	0	539
1	0	0	0	0	515
2	0	0	0	0	537
3	0	0	0	0	513
4	0	0	0	0	524
5	0	0	0	0	510
6	0	0	0	0	526
7	0	0	0	0	501
8	0	0	0	0	524
9	0	0	0	0	505
10	0	0	0	0	527
11	0	0	0	0	501
12	0	0	0	0	524
13	0	0	0	0	486
14	0	0	0	0	537
15	0	0	0	0	476
0	0	0	0	0	438
1	0	0	0	0	495
2	0	0	0	0	499
3	0	0	0	0	586
4	0	0	0	0	346
5	0	0	0	0	608
6	0	0	0	0	478
7	0	0	0	0	440
8	0	0	0	0	558
9	0	0	0	0	383
10	0	0	0	0	677
11	0	0	0	0	676
12	0	0	0	0	244
13	0	0	0	0	671
14	0	0	0	0	358
15	0	0	0	0	568
0	0	0	0	0	640
1	0	0	0	0	261
2	0	0	0	0	1017
3	0	0	0	0	288
4	0	0	0	0	475
5	0	0	0	0	787
6	0	0	0	0	40
7	0	0	0	0	1022
8	0	0	0	0	484
9	0	0	0	0	665
10	0	0	0	0	984
11	0	0	0	0	0
12	0	0	0	0	1022
13	0	0	0	0	0
14	0	0	0	0	1022
15	0	0	0	0	0
0	0	0	0	0	1022
1	0	0	0	0	155
2	0	0	0	0	933
3	0	0	0	0	501
4	0	0	0	0	0
5	0	0	0	0	437
6	0	0	0	0	0
7	0	0	0	0	1022
8	0	0	0	0	0
9	0	0	0	0	323
10	0	0	0	0	959
11	0	0	0	0	432
12	0	0	0	0	158
13	0	0	0	0	1022
14	0	0	0	0	0
15	0	0	0	0	100
0	0	0	0	0	1022
1	0	0	0	0	0
2	0	0	0	0	436
3	0	0	0	0	643
4	0	0	0	0	490
5	0	0	0	0	917
6	0	0	0	0	425
7	0	0	0	0	348
8	0	0	0	0	692
9	0	0	0	0	1022
10	0	0	0	0	77
11	0	0	0	0	682
12	0	0	0	0	649
13	0	0	0	0	27
14	0	0	0	0	376
15	0	0	0	0	733
0	0	0	0	0	1022
1	0	0	0	0	653
2	0	0	0	0	0
3	0	0	0	0	753
4	0	0	0	0	100
5	0	0	0	0	142
6	0	0	0	0	273
7	0	0	0	0	543
8	0	0	0	0	397
9	0	0	0	0	172
10	0	0	0	0	374
11	0	0	0	0	111
12	0	0	0	0	26
13	0	0	0	0	511
14	0	0	0	0	900
15	0	0	0	0	213
0	0	0	0	0	428
1	0	0	0	0	999
2	0	0	0	0	268
3	0	0	0	0	752
4	0	0	0	0	516
5	0	0	0	0	639
6	0	0	0	0	652
7	0	0	0	0	501
8	0	0	0	0	902
9	0	0	0	0	368
10	0	0	0	0	1022
11	0	0	0	0	568
12	0	0	0	0	195
13	0	0	0	0	1022
14	0	0	0	0	262
15	0	0	0	0	303
0	0	0	0	0	649
1	0	0	0	0	899
2	0	0	0	0	387
3	0	0	0	0	879
4	0	0	0	0	960
5	0	0	0	0	994
6	0	0	0	0	376
7	0	0	0	0	829
8	0	0	0	0	507
9	0	0	0	0	466
10	0	0	0	0	534
11	0	0	0	0	435
12	0	0	0	0	463
13	0	0	0	0	558
14	0	0	0	0	514
15	0	0	0	0	517
0	0	0	0	0	532
1	0	0	0	0	505
2	0	0	0	0	432
3	0	0	0	0	545
4	0	0	0	0	548
5	0	0	0	0	502
6	0	0	0	0	501
7	0	0	0	0	521
8	0	0	0	0	470
9	0	0	0	0	499
10	0	0	0	0	527
11	0	0	0	0	551
12	0	0	0	0	490
13	0	0	0	0	555
14	0	0	0	0	620
15	0	0	0	0	257
0	0	0	0	0	587
1	0	0	0	0	478
2	0	0	0	0	492
3	0	0	0	0	582
4	0	0	0	0	538
5	0	0	0	0	449
6	0	0	0	0	504
7	0	0	0	0	518
8	0	0	0	0	508
9	0	0	0	0	521
10	0	0	0	0	524
11	0	0	0	0	501
12	0	0	0	0	499
13	0	0	0	0	488
14	0	0	0	0	487
15	0	0	0	0	538
0	0	0	0	0	524
1	0	0	0	0	519
2	0	0	0	0	502
3	0	0	0	0	517
4	0	0	0	0	489
5	0	0	0	0	606
6	0	0	0	0	486
7	0	0	0	0	470
8	0	0	0	0	526
9	0	0	0	0	491
10	0	0	0	0	499
11	0	0	0	0	512
12	0	0	0	0	531
13	0	0	0	0	514
14	0	0	0	0	506
15	0	0	0	0	505
0	0	0	0	0	515
1	0	0	0	0	513
2	0	0	0	0	545
3	0	0	0	0	484
4	0	0	0	0	529
5	0	0	0	0	562
6	0	0	0	0	532
7	0	0	0	0	497
8	0	0	0	0	504
9	0	0	0	0	530
10	0	0	0	0	519
11	0	0	0	0	507
12	0	0	0	0	519
13	0	0	0	0	502
14	0	0	0	0	531
15	0	0	0	0	497
0	0	0	0	0	544
1	0	0	0	0	489
2	0	0	0	0	542
3	0	0	0	0	472
4	0	0	0	0	532
5	0	0	0	0	493
6	0	0	0	0	520
7	0	0	0	0	504
8	0	0	0	0	521
9	0	0	0	0	485
10	0	0	0	0	575
11	0	0	0	0	484
12	0	0	0	0	509
13	0	0	0	0	498
14	0	0	0	0	518
15	0	0	0	0	506
0	0	0	0	0	526
1	0	0	0	0	476
2	0	0	0	0	571
3	0	0	0	0	448
4	0	0	0	0	531
5	0	0	0	0	491
6	0	0	0	0	500
7	0	0	0	0	508
8	0	0	0	0	511
9	0	0	0	0	499
10	0	0	0	0	526
11	0	0	0	0	498
12	0	0	0	0	523
13	0	0	0	0	494
14	0	0	0	0	526
15	0	0	0	0	527
0	0	0	0	0	581
1	0	0	0	0	483
2	0	0	0	0	514
3	0	0	0	0	508
4	0	0	0	0	524
5	0	0	0	0	493
6	0	0	0	0	520
7	0	0	0	0	503
8	0	0	0	0	532
9	0	0	0	0	564
10	0	0	0	0	512
11	0	0	0	0	487
12	0	0	0	0	529
13	0	0	0	0	500
14	0	0	0	0	527
15	0	0	0	0	498
0	0	0	0	0	511
1	0	0	0	0	487
2	0	0	0	0	547
3	0	0	0	0	527
4	0	0	0	0	532
5	0	0	0	0	471
6	0	0	0	0	528
7	0	0	0	0	516
8	0	0	0	0	525
9	0	0	0	0	519
10	0	0	0	0	529
11	0	0	0	0	521
12	0	0	0	0	535
13	0	0	0	0	487
14	0	0	0	0	533
15	0	0	0	0	509
0	0	0	0	0	514
1	0	0	0	0	510
2	0	0	0	0	528
3	0	0	0	0	492
4	0	0	0	0	521
5	0	0	0	0	503
6	0	0	0	0	510
7	0	0	0	0	508
8	0	0	0	0	522
9	0	0	0	0	487
10	0	0	0	0	527
11	0	0	0	0	519
12	0	0	0	0	505
13	0	0	0	0	504
14	0	0	0	0	535
15	0	0	0	0	510
0	0	0	0	0	516
1	0	0	0	0	521
2	0	0	0	0	526
3	0	0	0	0	462
4	0	0	0	0	495
5	0	0	0	0	491
6	0	0	0	0	534
7	0	0	0	0	498
8	0	0	0	0	520
9	0	0	0	0	498
10	0	0	0	0	490
11	0	0	0	0	500
12	0	0	0	0	568
13	0	0	0	0	519
14	0	0	0	0	538
15	0	0	0	0	522
0	0	0	0	0	544
1	0	0	0	0	514
2	0	0	0	0	515
3	0	0	0	0	493
4	0	0	0	0	524
5	0	0	0	0	503
6	0	0	0	0	659
7	0	0	0	0	497
8	0	0	0	0	534
9	0	0	0	0	549
10	0	0	0	0	531
11	0	0	0	0	521
12	0	0	0	0	494
13	0	0	0	0	526
14	0	0	0	0	512
15	0	0	0	0	508
0	0	0	0	0	520
1	0	0	0	0	503
2	0	0	0	0	572
3	0	0	0	0	502
4	0	0	0	0	518
5	0	0	0	0	532
6	0	0	0	0	529
7	0	0	0	0	536
8	0	0	0	0	517
9	0	0	0	0	544
10	0	0	0	0	505
11	0	0	0	0	522
12	0	0	0	0	549
13	0	0	0	0	493
14	0	0	0	0	550
15	0	0	0	0	505
0	0	0	0	0	501
1	0	0	0	0	495
2	0	0	0	0	518
3	0	0	0	0	500
4	0	0	0	0	524
5	0	0	0	0	488
6	0	0	0	0	525
7	0	0	0	0	505
8	0	0	0	0	520
9	0	0	0	0	506
10	0	0	0	0	524
11	0	0	0	0	497
12	0	0	0	0	519
13	0	0	0	0	487
14	0	0	0	0	500
15	0	0	0	0	506
0	0	0	0	0	529
1	0	0	0	0	528
2	0	0	0	0	493
3	0	0	0	0	491
4	0	0	0	0	669
5	0	0	0	0	487
6	0	0	0	0	442
7	0	0	0	0	541
8	0	0	0	0	586
9	0	0	0	0	586
10	0	0	0	0	579
11	0	0	0	0	300
12	0	0	0	0	733
13	0	0	0	0	320
14	0	0	0	0	511
15	0	0	0	0	658
0	0	0	0	0	334
1	0	0	0	0	761
2	0	0	0	0	190
3	0	0	0	0	612
4	0	0	0	0	609
5	0	0	0	0	543
6	0	0	0	0	834
7	0	0	0	0	56
8	0	0	0	0	857
9	0	0	0	0	230
10	0	0	0	0	869
11	0	0	0	0	599
12	0	0	0	0	448
13	0	0	0	0	776
14	0	0	0	0	405
15	0	0	0	0	575
0	0	0	0	0	7
1	0	0	0	0	1022
2	0	0	0	0	33
3	0	0	0	0	1022
4	0	0	0	0	205
5	0	0	0	0	0
6	0	0	0	0	1022
7	0	0	0	0	0
8	0	0	0	0	1022
9	0	0	0	0	0
10	0	0	0	0	186
11	0	0	0	0	728
12	0	0	0	0	498
13	0	0	0	0	1022
14	0	0	0	0	268
15	0	0	0	0	750
0	0	0	0	0	585
1	0	0	0	0	742
2	0	0	0	0	750
3	0	0	0	0	932
4	0	0	0	0	216
5	0	0	0	0	193
6	0	0	0	0	839
7	0	0	0	0	390
8	0	0	0	0	499
9	0	0	0	0	1020
10	0	0	0	0	243
11	0	0	0	0	494
12	0	0	0	0	534
13	0	0	0	0	916
14	0	0	0	0	762
15	0	0	0	0	923
0	0	0	0	0	673
1	0	0	0	0	750
2	0	0	0	0	1022
3	0	0	0	0	769
4	0	0	0	0	170
5	0	0	0	0	115
6	0	0	0	0	977
7	0	0	0	0	291
8	0	0	0	0	159
9	0	0	0	0	852
10	0	0	0	0	67
11	0	0	0	0	513
12	0	0	0	0	480
13	0	0	0	0	639
14	0	0	0	0	1022
15	0	0	0	0	105
0	0	0	0	0	542
1	0	0	0	0	1022
2	0	0	0	0	249
3	0	0	0	0	809
4	0	0	0	0	291
5	0	0	0	0	540
6	0	0	0	0	1022
7	0	0	0	0	732
8	0	0	0	0	0
9	0	0	0	0	368
10	0	0	0	0	0
11	0	0	0	0	407
12	0	0	0	0	1020
13	0	0	0	0	510
14	0	0	0	0	0
15	0	0	0	0	308
0	0	0	0	0	975
1	0	0	0	0	0
2	0	0	0	0	243
3	0	0	0	0	398
4	0	0	0	0	521
5	0	0	0	0	335
6	0	0	0	0	317
7	0	0	0	0	570
8	0	0	0	0	0
9	0	0	0	0	498
10	0	0	0	0	661
11	0	0	0	0	256
12	0	0	0	0	0
13	0	0	0	0	423
14	0	0	0	0	1022
15	0	0	0	0	0
0	0	0	0	0	1022
1	0	0	0	0	252
2	0	0	0	0	47
3	0	0	0	0	524
4	0	0	0	0	545
5	0	0	0	0	875
6	0	0	0	0	136
7	0	0	0	0	932
8	0	0	0	0	658
9	0	0	0	0	1014
10	0	0	0	0	435
11	0	0	0	0	612
12	0	0	0	0	487
13	0	0	0	0	147
14	0	0	0	0	1022
15	0	0	0	0	30
0	0	0	0	0	683
1	0	0	0	0	393
2	0	0	0	0	570
3	0	0	0	0	1011
4	0	0	0	0	762
5	0	0	0	0	219
6	0	0	0	0	921
7	0	0	0	0	422
8	0	0	0	0	602
9	0	0	0	0	655
10	0	0	0	0	127
11	0	0	0	0	529
12	0	0	0	0	487
13	0	0	0	0	454
14	0	0	0	0	407
15	0	0	0	0	529
0	0	0	0	0	477
1	0	0	0	0	604
2	0	0	0	0	489
3	0	0	0	0	567
4	0	0	0	0	512
5	0	0	0	0	468
6	0	0	0	0	501
7	0	0	0	0	479
8	0	0	0	0	551
9	0	0	0	0	497
10	0	0	0	0	509
11	0	0	0	0	518
12	0	0	0	0	497
13	0	0	0	0	548
14	0	0	0	0	502
15	0	0	0	0	479
0	0	0	0	0	498
1	0	0	0	0	542
2	0	0	0	0	520
3	0	0	0	0	519
4	0	0	0	0	493
5	0	0	0	0	541
6	0	0	0	0	461
7	0	0	0	0	497
8	0	0	0	0	508
9	0	0	0	0	499
10	0	0	0	0	511
11	0	0	0	0	527
12	0	0	0	0	536
13	0	0	0	0	510
14	0	0	0	0	487
15	0	0	0	0	528
0	0	0	0	0	503
1	0	0	0	0	505
2	0	0	0	0	518
3	0	0	0	0	512
4	0	0	0	0	512
5	0	0	0	0	498
6	0	0	0	0	558
7	0	0	0	0	484
8	0	0	0	0	510
9	0	0	0	0	505
10	0	0	0	0	512
11	0	0	0	0	506
12	0	0	0	0	488
13	0	0	0	0	551
14	0	0	0	0	467
15	0	0	0	0	557
0	0	0	0	0	557
1	0	0	0	0	507
2	0	0	0	0	497
3	0	0	0	0	486
4	0	0	0	0	515
5	0	0	0	0	513
6	0	0	0	0	561
7	0	0	0	0	511
8	0	0	0	0	467
9	0	0	0	0	555
10	0	0	0	0	501
11	0	0	0	0	499
12	0	0	0	0	512
13	0	0	0	0	517
14	0	0	0	0	526
15	0	0	0	0	515
0	0	0	0	0	391
1	0	0	0	0	643
2	0	0	0	0	461
3	0	0	0	0	496
4	0	0	0	0	504
5	0	0	0	0	513
6	0	0	0	0	539
7	0	0	0	0	527
8	0	0	0	0	511
9	0	0	0	0	479
10	0	0	0	0	536
11	0	0	0	0	535
12	0	0	0	0	507
13	0	0	0	0	494
14	0	0	0	0	507
15	0	0	0	0	512
0	0	0	0	0	518
1	0	0	0	0	479
2	0	0	0	0	556
3	0	0	0	0	507
4	0	0	0	0	488
5	0	0	0	0	559
6	0	0	0	0	496
7	0	0	0	0	498
8	0	0	0	0	508
9	0	0	0	0	531
10	0	0	0	0	516
11	0	0	0	0	507
12	0	0	0	0	477
13	0	0	0	0	545
14	0	0	0	0	507
15	0	0	0	0	442
0	0	0	0	0	545
1	0	0	0	0	527
2	0	0	0	0	506
3	0	0	0	0	514
4	0	0	0	0	513
5	0	0	0	0	511
6	0	0	0	0	514
7	0	0	0	0	520
8	0	0	0	0	472
9	0	0	0	0	540
10	0	0	0	0	505
11	0	0	0	0	497
12	0	0	0	0	509
13	0	0	0	0	529
14	0	0	0	0	513
15	0	0	0	0	510
0	0	0	0	0	509
1	0	0	0	0	510
2	0	0	0	0	497
3	0	0	0	0	526
4	0	0	0	0	495
5	0	0	0	0	497
6	0	0	0	0	508
7	0	0	0	0	518
8	0	0	0	0	518
9	0	0	0	0	520
10	0	0	0	0	504
11	0	0	0	0	506
12	0	0	0	0	509
13	0	0	0	0	511
14	0	0	0	0	508
15	0	0	0	0	519
0	0	0	0	0	516
1	0	0	0	0	513
2	0	0	0	0	524
3	0	0	0	0	503
4	0	0	0	0	482
5	0	0	0	0	523
6	0	0	0	0	509
7	0	0	0	0	479
8	0	0	0	0	467
9	0	0	0	0	502
10	0	0	0	0	515
11	0	0	0	0	537
12	0	0	0	0	486
13	0	0	0	0	529
14	0	0	0	0	496
15	0	0	0	0	496
0	0	0	0	0	494
1	0	0	0	0	514
2	0	0	0	0	508
3	0	0	0	0	494
4	0	0	0	0	513
5	0	0	0	0	560
6	0	0	0	0	508
7	0	0	0	0	509
8	0	0	0	0	495
9	0	0	0	0	547
10	0	0	0	0	530
11	0	0	0	0	502
12	0	0	0	0	563
13	0	0	0	0	513
14	0	0	0	0	532
15	0	0	0	0	521
0	0	0	0	0	507
1	0	0	0	0	520
2	0	0	0	0	511
3	0	0	0	0	527
4	0	0	0	0	499
5	0	0	0	0	562
6	0	0	0	0	511
7	0	0	0	0	508
8	0	0	0	0	521
9	0	0	0	0	512
10	0	0	0	0	511
11	0	0	0	0	515
12	0	0	0	0	505
13	0	0	0	0	536
14	0	0	0	0	506
15	0	0	0	0	514
0	0	0	0	0	510
1	0	0	0	0	517
2	0	0	0	0	511
3	0	0	0	0	512
4	0	0	0	0	514
5	0	0	0	0	522
6	0	0	0	0	509
7	0	0	0	0	520
8	0	0	0	0	516
9	0	0	0	0	519
10	0	0	0	0	505
11	0	0	0	0	520
12	0	0	0	0	502
13	0	0	0	0	481
14	0	0	0	0	502
15	0	0	0	0	506
0	0	0	0	0	515
1	0	0	0	0	529
2	0	0	0	0	543
3	0	0	0	0	523
4	0	0	0	0	416
5	0	0	0	0	519
6	0	0	0	0	516
7	0	0	0	0	503
8	0	0	0	0	567
9	0	0	0	0	570
10	0	0	0	0	485
11	0	0	0	0	518
12	0	0	0	0	575
13	0	0	0	0	493
14	0	0	0	0	482
15	0	0	0	0	450
0	0	0	0	0	566
1	0	0	0	0	504
2	0	0	0	0	579
3	0	0	0	0	713
4	0	0	0	0	462
5	0	0	0	0	512
6	0	0	0	0	521
7	0	0	0	0	448
8	0	0	0	0	560
9	0	0	0	0	666
10	0	0	0	0	349
11	0	0	0	0	723
12	0	0	0	0	255
13	0	0	0	0	703
14	0	0	0	0	598
15	0	0	0	0	336
0	0	0	0	0	1015
1	0	0	0	0	0
2	0	0	0	0	1022
3	0	0	0	0	349
4	0	0	0	0	725
5	0	0	0	0	953
6	0	0	0	0	0
7	0	0	0	0	1022
8	0	0	0	0	133
9	0	0	0	0	1022
10	0	0	0	0	26
11	0	0	0	0	1022
12	0	0	0	0	192
13	0	0	0	0	560
14	0	0	0	0	21
15	0	0	0	0	1022
0	0	0	0	0	0
1	0	0	0	0	551
2	0	0	0	0	244
3	0	0	0	0	298
4	0	0	0	0	1022
5	0	0	0	0	0
6	0	0	0	0	1022
7	0	0	0	0	743
8	0	0	0	0	155
9	0	0	0	0	463
10	0	0	0	0	409
11	0	0	0	0	0
12	0	0	0	0	663
13	0	0	0	0	9
14	0	0	0	0	880
15	0	0	0	0	226
0	0	0	0	0	0
1	0	0	0	0	583
2	0	0	0	0	239
3	0	0	0	0	530
4	0	0	0	0	731
5	0	0	0	0	409
6	0	0	0	0	770
7	0	0	0	0	739
8	0	0	0	0	350
9	0	0	0	0	483
10	0	0	0	0	278
11	0	0	0	0	1022
12	0	0	0	0	633
13	0	0	0	0	298
14	0	0	0	0	0
15	0	0	0	0	651
0	0	0	0	0	365
1	0	0	0	0	235
2	0	0	0	0	16
3	0	0	0	0	505
4	0	0	0	0	556
5	0	0	0	0	312
6	0	0	0	0	746
7	0	0	0	0	295
8	0	0	0	0	398
9	0	0	0	0	346
10	0	0	0	0	1022
11	0	0	0	0	312
12	0	0	0	0	668
13	0	0	0	0	693
14	0	0	0	0	587
15	0	0	0	0	534
0	0	0	0	0	430
1	0	0	0	0	499
2	0	0	0	0	464
3	0	0	0	0	292
4	0	0	0	0	525
5	0	0	0	0	508
6	0	0	0	0	161
7	0	0	0	0	833
8	0	0	0	0	414
9	0	0	0	0	620
10	0	0	0	0	493
11	0	0	0	0	727
12	0	0	0	0	459
13	0	0	0	0	476
14	0	0	0	0	419
15	0	0	0	0	504
0	0	0	0	0	513
1	0	0	0	0	511
2	0	0	0	0	473
3	0	0	0	0	511
4	0	0	0	0	502
5	0	0	0	0	504
6	0	0	0	0	534
7	0	0	0	0	492
8	0	0	0	0	489
9	0	0	0	0	603
10	0	0	0	0	501
11	0	0	0	0	510
12	0	0	0	0	515
13	0	0	0	0	511
14	0	0	0	0	507
15	0	0	0	0	528
0	0	0	0	0	488
1	0	0	0	0	472
2	0	0	0	0	521
3	0	0	0	0	501
4	0	0	0	0	559
5	0	0	0	0	513
6	0	0	0	0	494
7	0	0	0	0	535
8	0	0	0	0	494
9	0	0	0	0	527
10	0	0	0	0	536
11	0	0	0	0	532
12	0	0	0	0	506
13	0	0	0	0	526
14	0	0	0	0	533
15	0	0	0	0	491
0	0	0	0	0	532
1	0	0	0	0	535
2	0	0	0	0	501
3	0	0	0	0	455
4	0	0	0	0	494
5	0	0	0	0	522
6	0	0	0	0	463
7	0	0	0	0	577
8	0	0	0	0	503
9	0	0	0	0	495
10	0	0	0	0	510
11	0	0	0	0	531
12	0	0	0	0	523
13	0	0	0	0	524
14	0	0	0	0	523
15	0	0	0	0	515
0	0	0	0	0	507
1	0	0	0	0	509
2	0	0	0	0	502
3	0	0	0	0	504
4	0	0	0	0	530
5	0	0	0	0	514
6	0	0	0	0	506
7	0	0	0	0	518
8	0	0	0	0	464
9	0	0	0	0	632
10	0	0	0	0	482
11	0	0	0	0	498
12	0	0	0	0	513
13	0	0	0	0	495
14	0	0	0	0	494
15	0	0	0	0	542
0	0	0	0	0	499
1	0	0	0	0	528
2	0	0	0	0	513
3	0	0	0	0	582
4	0	0	0	0	462
5	0	0	0	0	524
6	0	0	0	0	494
7	0	0	0	0	519
8	0	0	0	0	509
9	0	0	0	0	515
10	0	0	0	0	547
11	0	0	0	0	523
12	0	0	0	0	512
13	0	0	0	0	513
14	0	0	0	0	491
15	0	0	0	0	512
0	0	0	0	0	505
1	0	0	0	0	522
2	0	0	0	0	514
3	0	0	0	0	481
4	0	0	0	0	539
5	0	0	0	0	524
6	0	0	0	0	499
7	0	0	0	0	525
8	0	0	0	0	498
9	0	0	0	0	509
10	0	0	0	0	510
11	0	0	0	0	520
12	0	0	0	0	505
13	0	0	0	0	516
14	0	0	0	0	518
15	0	0	0	0	505
0	0	0	0	0	543
1	0	0	0	0	504
2	0	0	0	0	492
3	0	0	0	0	516
4	0	0	0	0	514
5	0	0	0	0	531
6	0	0	0	0	507
7	0	0	0	0	501
8	0	0	0	0	524
9	0	0	0	0	483
10	0	0	0	0	536
11	0	0	0	0	546
12	0	0	0	0	476
13	0	0	0	0	507
14	0	0	0	0	504
15	0	0	0	0	519
0	0	0	0	0	513
1	0	0	0	0	517
2	0	0	0	0	504
3	0	0	0	0	523
4	0	0	0	0	520
5	0	0	0	0	513
6	0	0	0	0	500
7	0	0	0	0	529
8	0	0	0	0	511
9	0	0	0	0	509
10	0	0	0	0	507
11	0	0	0	0	561
12	0	0	0	0	540
13	0	0	0	0	484
14	0	0	0	0	509
15	0	0	0	0	512
0	0	0	0	0	508
1	0	0	0	0	524
2	0	0	0	0	494
3	0	0	0	0	519
4	0	0	0	0	500
5	0	0	0	0	529
6	0	0	0	0	504
7	0	0	0	0	524
8	0	0	0	0	509
9	0	0	0	0	521
10	0	0	0	0	502
11	0	0	0	0	508
12	0	0	0	0	521
13	0	0	0	0	532
14	0	0	0	0	499
15	0	0	0	0	518
0	0	0	0	0	507
1	0	0	0	0	521
2	0	0	0	0	505
3	0	0	0	0	524
4	0	0	0	0	511
5	0	0	0	0	524
6	0	0	0	0	508
7	0	0	0	0	522
8	0	0	0	0	492
9	0	0	0	0	525
10	0	0	0	0	510
11	0	0	0	0	517
12	0	0	0	0	504
13	0	0	0	0	524
14	0	0	0	0	504
15	0	0	0	0	527
0	0	0	0	0	502
1	0	0	0	0	512
2	0	0	0	0	505
3	0	0	0	0	526
4	0	0	0	0	507
5	0	0	0	0	525
6	0	0	0	0	506
7	0	0	0	0	517
8	0	0	0	0	504
9	0	0	0	0	521
10	0	0	0	0	508
11	0	0	0	0	525
12	0	0	0	0	510
13	0	0	0	0	519
14	0	0	0	0	504
15	0	0	0	0	519
0	0	0	0	0	505
1	0	0	0	0	511
2	0	0	0	0	505
3	0	0	0	0	521
4	0	0	0	0	507
5	0	0	0	0	515
6	0	0	0	0	504
7	0	0	0	0	526
8	0	0	0	0	502
9	0	0	0	0	527
10	0	0	0	0	499
11	0	0	0	0	521
12	0	0	0	0	509
13	0	0	0	0	526
14	0	0	0	0	504
15	0	0	0	0	518
0	0	0	0	0	504
1	0	0	0	0	521
2	0	0	0	0	503
3	0	0	0	0	524
4	0	0	0	0	504
5	0	0	0	0	519
6	0	0	0	0	492
7	0	0	0	0	493
8	0	0	0	0	529
9	0	0	0	0	531
10	0	0	0	0	510
11	0	0	0	0	559
12	0	0	0	0	486
13	0	0	0	0	389
14	0	0	0	0	595
15	0	0	0	0	501
0	0	0	0	0	489
1	0	0	0	0	587
2	0	0	0	0	523
3	0	0	0	0	788
4	0	0	0	0	312
5	0	0	0	0	637
6	0	0	0	0	244
7	0	0	0	0	664
8	0	0	0	0	560
9	0	0	0	0	405
10	0	0	0	0	838
11	0	0	0	0	307
12	0	0	0	0	728
13	0	0	0	0	766
14	0	0	0	0	106
15	0	0	0	0	740
0	0	0	0	0	514
1	0	0	0	0	658
2	0	0	0	0	416
3	0	0	0	0	590
4	0	0	0	0	707
5	0	0	0	0	181
6	0	0	0	0	1022
7	0	0	0	0	135
8	0	0	0	0	678
9	0	0	0	0	0
10	0	0	0	0	1022
11	0	0	0	0	0
12	0	0	0	0	1022
13	0	0	0	0	0
14	0	0	0	0	1022
15	0	0	0	0	325
0	0	0	0	0	837
1	0	0	0	0	167
2	0	0	0	0	0
3	0	0	0	0	773
4	0	0	0	0	0
5	0	0	0	0	1022
6	0	0	0	0	0
7	0	0	0	0	828
8	0	0	0	0	0
9	0	0	0	0	787
10	0	0	0	0	1022
11	0	0	0	0	458
12	0	0	0	0	492
13	0	0	0	0	518
14	0	0	0	0	1022
15	0	0	0	0	540
0	0	0	0	0	20
-1	1	1	0	0	0
