# OpenSignals Text File Format
# {"CC:78:AB:5E:8E:CE":{"sensor":["RAW"],"device name":"CC:78:AB:5E:8E:CE","column":["nSeq","I1","I2","O1","O2","A1"],"sync interval":2,"time":"12:15:25","comments":"","device connection":"BLECC:78:AB:5E:8E:CE","channels":[1],"date":"2022-04-28","mode":0,"digital IO":[0,0,1,1],"firmware version":0,"device":"bitalino_rev","position":0,"sampling rate":100,"label":["A1"],"resolution":[10],"special":[{}]}}
# EndOfHeader
0	0	0	0	0	495
1	0	0	0	0	510
2	0	0	0	0	499
3	0	0	0	0	636
4	0	0	0	0	445
5	0	0	0	0	544
6	0	0	0	0	448
7	0	0	0	0	563
8	0	0	0	0	456
9	0	0	0	0	542
10	0	0	0	0	434
11	0	0	0	0	536
12	0	0	0	0	445
13	0	0	0	0	523
14	0	0	0	0	384
15	0	0	0	0	556
0	0	0	0	0	504
1	0	0	0	0	562
2	0	0	0	0	445
3	0	0	0	0	552
4	0	0	0	0	478
5	0	0	0	0	515
6	0	0	0	0	473
7	0	0	0	0	537
8	0	0	0	0	446
9	0	0	0	0	520
10	0	0	0	0	489
11	0	0	0	0	509
12	0	0	0	0	473
13	0	0	0	0	501
14	0	0	0	0	478
15	0	0	0	0	558
0	0	0	0	0	480
1	0	0	0	0	545
2	0	0	0	0	464
3	0	0	0	0	526
4	0	0	0	0	450
5	0	0	0	0	554
6	0	0	0	0	507
7	0	0	0	0	555
8	0	0	0	0	490
9	0	0	0	0	545
10	0	0	0	0	490
11	0	0	0	0	531
12	0	0	0	0	427
13	0	0	0	0	536
14	0	0	0	0	479
15	0	0	0	0	556
0	0	0	0	0	476
1	0	0	0	0	658
2	0	0	0	0	422
3	0	0	0	0	528
4	0	0	0	0	471
5	0	0	0	0	562
6	0	0	0	0	453
7	0	0	0	0	557
8	0	0	0	0	507
9	0	0	0	0	538
10	0	0	0	0	440
11	0	0	0	0	656
12	0	0	0	0	497
13	0	0	0	0	527
14	0	0	0	0	455
15	0	0	0	0	555
0	0	0	0	0	465
1	0	0	0	0	558
2	0	0	0	0	476
3	0	0	0	0	557
4	0	0	0	0	460
5	0	0	0	0	527
6	0	0	0	0	439
7	0	0	0	0	550
8	0	0	0	0	467
9	0	0	0	0	554
10	0	0	0	0	470
11	0	0	0	0	624
12	0	0	0	0	468
13	0	0	0	0	544
14	0	0	0	0	489
15	0	0	0	0	557
0	0	0	0	0	466
1	0	0	0	0	519
2	0	0	0	0	448
3	0	0	0	0	598
4	0	0	0	0	435
5	0	0	0	0	562
6	0	0	0	0	464
7	0	0	0	0	558
8	0	0	0	0	463
9	0	0	0	0	508
10	0	0	0	0	441
11	0	0	0	0	552
12	0	0	0	0	448
13	0	0	0	0	559
14	0	0	0	0	476
15	0	0	0	0	580
0	0	0	0	0	469
1	0	0	0	0	436
2	0	0	0	0	455
3	0	0	0	0	578
4	0	0	0	0	340
5	0	0	0	0	565
6	0	0	0	0	494
7	0	0	0	0	558
8	0	0	0	0	466
9	0	0	0	0	539
10	0	0	0	0	477
11	0	0	0	0	552
12	0	0	0	0	505
13	0	0	0	0	581
14	0	0	0	0	493
15	0	0	0	0	574
0	0	0	0	0	469
1	0	0	0	0	518
2	0	0	0	0	496
3	0	0	0	0	520
4	0	0	0	0	414
5	0	0	0	0	579
6	0	0	0	0	457
7	0	0	0	0	531
8	0	0	0	0	476
9	0	0	0	0	552
10	0	0	0	0	456
11	0	0	0	0	550
12	0	0	0	0	466
13	0	0	0	0	611
14	0	0	0	0	462
15	0	0	0	0	558
0	0	0	0	0	436
1	0	0	0	0	513
2	0	0	0	0	437
3	0	0	0	0	534
4	0	0	0	0	500
5	0	0	0	0	565
6	0	0	0	0	495
7	0	0	0	0	549
8	0	0	0	0	566
9	0	0	0	0	541
10	0	0	0	0	513
11	0	0	0	0	545
12	0	0	0	0	466
13	0	0	0	0	552
14	0	0	0	0	466
15	0	0	0	0	569
0	0	0	0	0	429
1	0	0	0	0	611
2	0	0	0	0	435
3	0	0	0	0	556
4	0	0	0	0	465
5	0	0	0	0	551
6	0	0	0	0	517
7	0	0	0	0	527
8	0	0	0	0	445
9	0	0	0	0	549
10	0	0	0	0	466
11	0	0	0	0	556
12	0	0	0	0	441
13	0	0	0	0	546
14	0	0	0	0	515
15	0	0	0	0	559
0	0	0	0	0	461
1	0	0	0	0	566
2	0	0	0	0	465
3	0	0	0	0	555
4	0	0	0	0	464
5	0	0	0	0	512
6	0	0	0	0	427
7	0	0	0	0	567
8	0	0	0	0	430
9	0	0	0	0	563
10	0	0	0	0	465
11	0	0	0	0	534
12	0	0	0	0	424
13	0	0	0	0	535
14	0	0	0	0	451
15	0	0	0	0	564
0	0	0	0	0	463
1	0	0	0	0	561
2	0	0	0	0	448
3	0	0	0	0	546
4	0	0	0	0	473
5	0	0	0	0	504
6	0	0	0	0	476
7	0	0	0	0	536
8	0	0	0	0	464
9	0	0	0	0	586
10	0	0	0	0	437
11	0	0	0	0	504
12	0	0	0	0	480
13	0	0	0	0	552
14	0	0	0	0	452
15	0	0	0	0	560
0	0	0	0	0	512
1	0	0	0	0	528
2	0	0	0	0	463
3	0	0	0	0	560
4	0	0	0	0	489
5	0	0	0	0	560
6	0	0	0	0	468
7	0	0	0	0	590
8	0	0	0	0	381
9	0	0	0	0	654
10	0	0	0	0	454
11	0	0	0	0	559
12	0	0	0	0	466
13	0	0	0	0	557
14	0	0	0	0	456
15	0	0	0	0	540
0	0	0	0	0	503
1	0	0	0	0	528
2	0	0	0	0	542
3	0	0	0	0	553
4	0	0	0	0	461
5	0	0	0	0	561
6	0	0	0	0	467
7	0	0	0	0	589
8	0	0	0	0	389
9	0	0	0	0	509
10	0	0	0	0	469
11	0	0	0	0	558
12	0	0	0	0	468
13	0	0	0	0	542
14	0	0	0	0	500
15	0	0	0	0	743
0	0	0	0	0	472
1	0	0	0	0	545
2	0	0	0	0	471
3	0	0	0	0	560
4	0	0	0	0	470
5	0	0	0	0	519
6	0	0	0	0	378
7	0	0	0	0	536
8	0	0	0	0	462
9	0	0	0	0	559
10	0	0	0	0	487
11	0	0	0	0	559
12	0	0	0	0	458
13	0	0	0	0	518
14	0	0	0	0	471
15	0	0	0	0	561
0	0	0	0	0	454
1	0	0	0	0	572
2	0	0	0	0	457
3	0	0	0	0	540
4	0	0	0	0	425
5	0	0	0	0	568
6	0	0	0	0	420
7	0	0	0	0	567
8	0	0	0	0	464
9	0	0	0	0	565
10	0	0	0	0	457
11	0	0	0	0	578
12	0	0	0	0	451
13	0	0	0	0	629
14	0	0	0	0	441
15	0	0	0	0	543
0	0	0	0	0	421
1	0	0	0	0	568
2	0	0	0	0	473
3	0	0	0	0	657
4	0	0	0	0	434
5	0	0	0	0	419
6	0	0	0	0	389
7	0	0	0	0	545
8	0	0	0	0	448
9	0	0	0	0	584
10	0	0	0	0	457
11	0	0	0	0	591
12	0	0	0	0	363
13	0	0	0	0	676
14	0	0	0	0	430
15	0	0	0	0	572
0	0	0	0	0	417
1	0	0	0	0	589
2	0	0	0	0	453
3	0	0	0	0	649
4	0	0	0	0	365
5	0	0	0	0	676
6	0	0	0	0	435
7	0	0	0	0	606
8	0	0	0	0	420
9	0	0	0	0	587
10	0	0	0	0	430
11	0	0	0	0	589
12	0	0	0	0	440
13	0	0	0	0	791
14	0	0	0	0	386
15	0	0	0	0	582
0	0	0	0	0	417
1	0	0	0	0	600
2	0	0	0	0	381
3	0	0	0	0	587
4	0	0	0	0	494
5	0	0	0	0	564
6	0	0	0	0	390
7	0	0	0	0	540
8	0	0	0	0	403
9	0	0	0	0	617
10	0	0	0	0	411
11	0	0	0	0	585
12	0	0	0	0	365
13	0	0	0	0	756
14	0	0	0	0	372
15	0	0	0	0	574
0	0	0	0	0	390
1	0	0	0	0	628
2	0	0	0	0	412
3	0	0	0	0	517
4	0	0	0	0	381
5	0	0	0	0	551
6	0	0	0	0	411
7	0	0	0	0	611
8	0	0	0	0	441
9	0	0	0	0	610
10	0	0	0	0	364
11	0	0	0	0	547
12	0	0	0	0	201
13	0	0	0	0	615
14	0	0	0	0	511
15	0	0	0	0	607
0	0	0	0	0	398
1	0	0	0	0	655
2	0	0	0	0	417
3	0	0	0	0	622
4	0	0	0	0	372
5	0	0	0	0	697
6	0	0	0	0	378
7	0	0	0	0	620
8	0	0	0	0	399
9	0	0	0	0	635
10	0	0	0	0	436
11	0	0	0	0	711
12	0	0	0	0	368
13	0	0	0	0	687
14	0	0	0	0	384
15	0	0	0	0	662
0	0	0	0	0	84
1	0	0	0	0	593
2	0	0	0	0	511
3	0	0	0	0	701
4	0	0	0	0	411
5	0	0	0	0	668
6	0	0	0	0	483
7	0	0	0	0	610
8	0	0	0	0	377
9	0	0	0	0	647
10	0	0	0	0	364
11	0	0	0	0	603
12	0	0	0	0	499
13	0	0	0	0	594
14	0	0	0	0	371
15	0	0	0	0	677
0	0	0	0	0	376
1	0	0	0	0	641
2	0	0	0	0	386
3	0	0	0	0	637
4	0	0	0	0	443
5	0	0	0	0	617
6	0	0	0	0	298
7	0	0	0	0	689
8	0	0	0	0	352
9	0	0	0	0	620
10	0	0	0	0	321
11	0	0	0	0	598
12	0	0	0	0	342
13	0	0	0	0	621
14	0	0	0	0	366
15	0	0	0	0	657
0	0	0	0	0	355
1	0	0	0	0	632
2	0	0	0	0	420
3	0	0	0	0	771
4	0	0	0	0	351
5	0	0	0	0	669
6	0	0	0	0	415
7	0	0	0	0	638
8	0	0	0	0	415
9	0	0	0	0	638
10	0	0	0	0	430
11	0	0	0	0	608
12	0	0	0	0	388
13	0	0	0	0	631
14	0	0	0	0	502
15	0	0	0	0	603
0	0	0	0	0	363
1	0	0	0	0	765
2	0	0	0	0	381
3	0	0	0	0	629
4	0	0	0	0	388
5	0	0	0	0	671
6	0	0	0	0	297
7	0	0	0	0	602
8	0	0	0	0	538
9	0	0	0	0	606
10	0	0	0	0	376
11	0	0	0	0	631
12	0	0	0	0	346
13	0	0	0	0	561
14	0	0	0	0	312
15	0	0	0	0	649
0	0	0	0	0	372
1	0	0	0	0	646
2	0	0	0	0	398
3	0	0	0	0	674
4	0	0	0	0	370
5	0	0	0	0	657
6	0	0	0	0	328
7	0	0	0	0	595
8	0	0	0	0	394
9	0	0	0	0	684
10	0	0	0	0	456
11	0	0	0	0	811
12	0	0	0	0	451
13	0	0	0	0	625
14	0	0	0	0	375
15	0	0	0	0	581
0	0	0	0	0	393
1	0	0	0	0	709
2	0	0	0	0	312
3	0	0	0	0	641
4	0	0	0	0	394
5	0	0	0	0	623
6	0	0	0	0	382
7	0	0	0	0	650
8	0	0	0	0	403
9	0	0	0	0	600
10	0	0	0	0	393
11	0	0	0	0	617
12	0	0	0	0	400
13	0	0	0	0	654
14	0	0	0	0	400
15	0	0	0	0	615
0	0	0	0	0	457
1	0	0	0	0	556
2	0	0	0	0	405
3	0	0	0	0	629
4	0	0	0	0	406
5	0	0	0	0	599
6	0	0	0	0	380
7	0	0	0	0	630
8	0	0	0	0	356
9	0	0	0	0	612
10	0	0	0	0	377
11	0	0	0	0	604
12	0	0	0	0	406
13	0	0	0	0	591
14	0	0	0	0	350
15	0	0	0	0	678
0	0	0	0	0	384
1	0	0	0	0	600
2	0	0	0	0	416
3	0	0	0	0	630
4	0	0	0	0	424
5	0	0	0	0	638
6	0	0	0	0	660
7	0	0	0	0	573
8	0	0	0	0	397
9	0	0	0	0	600
10	0	0	0	0	429
11	0	0	0	0	586
12	0	0	0	0	483
13	0	0	0	0	564
14	0	0	0	0	391
15	0	0	0	0	623
0	0	0	0	0	443
1	0	0	0	0	575
2	0	0	0	0	486
3	0	0	0	0	589
4	0	0	0	0	423
5	0	0	0	0	575
6	0	0	0	0	371
7	0	0	0	0	607
8	0	0	0	0	411
9	0	0	0	0	553
10	0	0	0	0	435
11	0	0	0	0	534
12	0	0	0	0	433
13	0	0	0	0	570
14	0	0	0	0	460
15	0	0	0	0	584
0	0	0	0	0	432
1	0	0	0	0	582
2	0	0	0	0	519
3	0	0	0	0	594
4	0	0	0	0	494
5	0	0	0	0	566
6	0	0	0	0	439
7	0	0	0	0	704
8	0	0	0	0	448
9	0	0	0	0	515
10	0	0	0	0	427
11	0	0	0	0	583
12	0	0	0	0	436
13	0	0	0	0	556
14	0	0	0	0	456
15	0	0	0	0	654
0	0	0	0	0	439
1	0	0	0	0	597
2	0	0	0	0	502
3	0	0	0	0	537
4	0	0	0	0	445
5	0	0	0	0	606
6	0	0	0	0	486
7	0	0	0	0	597
8	0	0	0	0	384
9	0	0	0	0	566
10	0	0	0	0	399
11	0	0	0	0	568
12	0	0	0	0	481
13	0	0	0	0	559
14	0	0	0	0	454
15	0	0	0	0	575
0	0	0	0	0	420
1	0	0	0	0	555
2	0	0	0	0	477
3	0	0	0	0	558
4	0	0	0	0	435
5	0	0	0	0	570
6	0	0	0	0	432
7	0	0	0	0	538
8	0	0	0	0	496
9	0	0	0	0	566
10	0	0	0	0	435
11	0	0	0	0	532
12	0	0	0	0	401
13	0	0	0	0	574
14	0	0	0	0	475
15	0	0	0	0	534
0	0	0	0	0	432
1	0	0	0	0	556
2	0	0	0	0	429
3	0	0	0	0	527
4	0	0	0	0	494
5	0	0	0	0	534
6	0	0	0	0	454
7	0	0	0	0	532
8	0	0	0	0	500
9	0	0	0	0	568
10	0	0	0	0	481
11	0	0	0	0	539
12	0	0	0	0	479
13	0	0	0	0	554
14	0	0	0	0	530
15	0	0	0	0	551
0	0	0	0	0	487
1	0	0	0	0	508
2	0	0	0	0	557
3	0	0	0	0	529
4	0	0	0	0	482
5	0	0	0	0	511
6	0	0	0	0	527
7	0	0	0	0	512
8	0	0	0	0	481
9	0	0	0	0	500
10	0	0	0	0	499
11	0	0	0	0	528
12	0	0	0	0	493
13	0	0	0	0	530
14	0	0	0	0	481
15	0	0	0	0	569
0	0	0	0	0	489
1	0	0	0	0	498
2	0	0	0	0	496
3	0	0	0	0	532
4	0	0	0	0	497
5	0	0	0	0	534
6	0	0	0	0	529
7	0	0	0	0	498
8	0	0	0	0	456
9	0	0	0	0	475
10	0	0	0	0	509
11	0	0	0	0	569
12	0	0	0	0	510
13	0	0	0	0	446
14	0	0	0	0	507
15	0	0	0	0	559
0	0	0	0	0	515
1	0	0	0	0	507
2	0	0	0	0	522
3	0	0	0	0	440
4	0	0	0	0	493
5	0	0	0	0	615
6	0	0	0	0	510
7	0	0	0	0	519
8	0	0	0	0	487
9	0	0	0	0	547
10	0	0	0	0	516
11	0	0	0	0	509
12	0	0	0	0	472
13	0	0	0	0	521
14	0	0	0	0	503
15	0	0	0	0	486
0	0	0	0	0	545
1	0	0	0	0	488
2	0	0	0	0	580
3	0	0	0	0	523
4	0	0	0	0	489
5	0	0	0	0	497
6	0	0	0	0	512
7	0	0	0	0	480
8	0	0	0	0	507
9	0	0	0	0	498
10	0	0	0	0	490
11	0	0	0	0	468
12	0	0	0	0	535
13	0	0	0	0	470
14	0	0	0	0	545
15	0	0	0	0	483
0	0	0	0	0	512
1	0	0	0	0	533
2	0	0	0	0	503
3	0	0	0	0	502
4	0	0	0	0	532
5	0	0	0	0	446
6	0	0	0	0	546
7	0	0	0	0	495
8	0	0	0	0	590
9	0	0	0	0	491
10	0	0	0	0	577
11	0	0	0	0	482
12	0	0	0	0	804
13	0	0	0	0	458
14	0	0	0	0	595
15	0	0	0	0	480
0	0	0	0	0	549
1	0	0	0	0	477
2	0	0	0	0	546
3	0	0	0	0	458
4	0	0	0	0	537
5	0	0	0	0	451
6	0	0	0	0	531
7	0	0	0	0	527
8	0	0	0	0	547
9	0	0	0	0	499
10	0	0	0	0	512
11	0	0	0	0	304
12	0	0	0	0	626
13	0	0	0	0	562
14	0	0	0	0	603
15	0	0	0	0	473
0	0	0	0	0	583
1	0	0	0	0	508
2	0	0	0	0	527
3	0	0	0	0	447
4	0	0	0	0	549
5	0	0	0	0	481
6	0	0	0	0	518
7	0	0	0	0	434
8	0	0	0	0	643
9	0	0	0	0	486
10	0	0	0	0	569
11	0	0	0	0	466
12	0	0	0	0	557
13	0	0	0	0	453
14	0	0	0	0	599
15	0	0	0	0	453
0	0	0	0	0	531
1	0	0	0	0	454
2	0	0	0	0	559
3	0	0	0	0	450
4	0	0	0	0	538
5	0	0	0	0	423
6	0	0	0	0	629
7	0	0	0	0	464
8	0	0	0	0	560
9	0	0	0	0	454
10	0	0	0	0	571
11	0	0	0	0	635
12	0	0	0	0	527
13	0	0	0	0	428
14	0	0	0	0	631
15	0	0	0	0	457
0	0	0	0	0	553
1	0	0	0	0	452
2	0	0	0	0	524
3	0	0	0	0	424
4	0	0	0	0	534
5	0	0	0	0	436
6	0	0	0	0	588
7	0	0	0	0	458
8	0	0	0	0	605
9	0	0	0	0	437
10	0	0	0	0	590
11	0	0	0	0	455
12	0	0	0	0	578
13	0	0	0	0	452
14	0	0	0	0	566
15	0	0	0	0	452
0	0	0	0	0	568
1	0	0	0	0	433
2	0	0	0	0	527
3	0	0	0	0	425
4	0	0	0	0	572
5	0	0	0	0	447
6	0	0	0	0	625
7	0	0	0	0	451
8	0	0	0	0	557
9	0	0	0	0	441
10	0	0	0	0	572
11	0	0	0	0	471
12	0	0	0	0	568
13	0	0	0	0	476
14	0	0	0	0	580
15	0	0	0	0	451
0	0	0	0	0	547
1	0	0	0	0	474
2	0	0	0	0	613
3	0	0	0	0	431
4	0	0	0	0	574
5	0	0	0	0	447
6	0	0	0	0	584
7	0	0	0	0	388
8	0	0	0	0	618
9	0	0	0	0	492
10	0	0	0	0	582
11	0	0	0	0	449
12	0	0	0	0	566
13	0	0	0	0	437
14	0	0	0	0	567
15	0	0	0	0	428
0	0	0	0	0	649
1	0	0	0	0	465
2	0	0	0	0	561
3	0	0	0	0	413
4	0	0	0	0	563
5	0	0	0	0	447
6	0	0	0	0	648
7	0	0	0	0	410
8	0	0	0	0	569
9	0	0	0	0	440
10	0	0	0	0	610
11	0	0	0	0	459
12	0	0	0	0	604
13	0	0	0	0	463
14	0	0	0	0	580
15	0	0	0	0	465
0	0	0	0	0	583
1	0	0	0	0	508
2	0	0	0	0	586
3	0	0	0	0	477
4	0	0	0	0	565
5	0	0	0	0	460
6	0	0	0	0	582
7	0	0	0	0	445
8	0	0	0	0	584
9	0	0	0	0	440
10	0	0	0	0	560
11	0	0	0	0	431
12	0	0	0	0	586
13	0	0	0	0	432
14	0	0	0	0	631
15	0	0	0	0	428
0	0	0	0	0	566
1	0	0	0	0	439
2	0	0	0	0	598
3	0	0	0	0	439
4	0	0	0	0	595
5	0	0	0	0	431
6	0	0	0	0	716
7	0	0	0	0	419
8	0	0	0	0	595
9	0	0	0	0	420
10	0	0	0	0	584
11	0	0	0	0	409
12	0	0	0	0	555
13	0	0	0	0	419
14	0	0	0	0	571
15	0	0	0	0	443
0	0	0	0	0	647
1	0	0	0	0	444
2	0	0	0	0	679
3	0	0	0	0	432
4	0	0	0	0	627
5	0	0	0	0	450
6	0	0	0	0	564
7	0	0	0	0	420
8	0	0	0	0	591
9	0	0	0	0	428
10	0	0	0	0	567
11	0	0	0	0	483
12	0	0	0	0	581
13	0	0	0	0	614
14	0	0	0	0	585
15	0	0	0	0	429
0	0	0	0	0	639
1	0	0	0	0	415
2	0	0	0	0	601
3	0	0	0	0	404
4	0	0	0	0	591
5	0	0	0	0	303
6	0	0	0	0	672
7	0	0	0	0	523
8	0	0	0	0	455
9	0	0	0	0	579
10	0	0	0	0	414
11	0	0	0	0	500
12	0	0	0	0	641
13	0	0	0	0	445
14	0	0	0	0	662
15	0	0	0	0	288
0	0	0	0	0	651
1	0	0	0	0	377
2	0	0	0	0	580
3	0	0	0	0	342
4	0	0	0	0	756
5	0	0	0	0	350
6	0	0	0	0	610
7	0	0	0	0	515
8	0	0	0	0	452
9	0	0	0	0	629
10	0	0	0	0	823
11	0	0	0	0	1022
12	0	0	0	0	590
13	0	0	0	0	0
14	0	0	0	0	576
15	0	0	0	0	157
0	0	0	0	0	0
1	0	0	0	0	0
2	0	0	0	0	39
3	0	0	0	0	415
4	0	0	0	0	484
5	0	0	0	0	507
6	0	0	0	0	502
7	0	0	0	0	530
8	0	0	0	0	509
9	0	0	0	0	521
10	0	0	0	0	512
11	0	0	0	0	521
12	0	0	0	0	508
13	0	0	0	0	510
14	0	0	0	0	511
15	0	0	0	0	515
0	0	0	0	0	519
1	0	0	0	0	511
2	0	0	0	0	0
3	0	0	0	0	540
4	0	0	0	0	252
5	0	0	0	0	331
6	0	0	0	0	579
7	0	0	0	0	0
8	0	0	0	0	508
9	0	0	0	0	380
10	0	0	0	0	802
11	0	0	0	0	0
12	0	0	0	0	35
13	0	0	0	0	1022
14	0	0	0	0	814
15	0	0	0	0	460
0	0	0	0	0	392
1	0	0	0	0	803
2	0	0	0	0	1022
3	0	0	0	0	244
4	0	0	0	0	0
5	0	0	0	0	343
6	0	0	0	0	146
7	0	0	0	0	844
8	0	0	0	0	195
9	0	0	0	0	489
10	0	0	0	0	956
11	0	0	0	0	231
12	0	0	0	0	987
13	0	0	0	0	47
14	0	0	0	0	543
15	0	0	0	0	608
0	0	0	0	0	792
1	0	0	0	0	275
2	0	0	0	0	996
3	0	0	0	0	0
4	0	0	0	0	99
5	0	0	0	0	1022
6	0	0	0	0	204
7	0	0	0	0	438
8	0	0	0	0	802
9	0	0	0	0	323
10	0	0	0	0	289
11	0	0	0	0	763
12	0	0	0	0	828
13	0	0	0	0	840
14	0	0	0	0	139
15	0	0	0	0	418
0	0	0	0	0	281
1	0	0	0	0	217
2	0	0	0	0	254
3	0	0	0	0	383
4	0	0	0	0	518
5	0	0	0	0	1022
6	0	0	0	0	155
7	0	0	0	0	721
8	0	0	0	0	559
9	0	0	0	0	566
10	0	0	0	0	611
11	0	0	0	0	277
12	0	0	0	0	245
13	0	0	0	0	493
14	0	0	0	0	408
15	0	0	0	0	444
0	0	0	0	0	503
1	0	0	0	0	476
2	0	0	0	0	452
3	0	0	0	0	537
4	0	0	0	0	500
5	0	0	0	0	563
6	0	0	0	0	509
7	0	0	0	0	637
8	0	0	0	0	515
9	0	0	0	0	471
10	0	0	0	0	472
11	0	0	0	0	424
12	0	0	0	0	522
13	0	0	0	0	524
14	0	0	0	0	494
15	0	0	0	0	602
0	0	0	0	0	498
1	0	0	0	0	523
2	0	0	0	0	511
3	0	0	0	0	475
4	0	0	0	0	526
5	0	0	0	0	496
6	0	0	0	0	528
7	0	0	0	0	462
8	0	0	0	0	585
9	0	0	0	0	495
10	0	0	0	0	525
11	0	0	0	0	532
12	0	0	0	0	538
13	0	0	0	0	508
14	0	0	0	0	527
15	0	0	0	0	511
0	0	0	0	0	527
1	0	0	0	0	481
2	0	0	0	0	502
3	0	0	0	0	507
4	0	0	0	0	511
5	0	0	0	0	558
6	0	0	0	0	516
7	0	0	0	0	496
8	0	0	0	0	526
9	0	0	0	0	511
10	0	0	0	0	512
11	0	0	0	0	486
12	0	0	0	0	549
13	0	0	0	0	496
14	0	0	0	0	533
15	0	0	0	0	527
0	0	0	0	0	530
1	0	0	0	0	439
2	0	0	0	0	626
3	0	0	0	0	465
4	0	0	0	0	503
5	0	0	0	0	515
6	0	0	0	0	509
7	0	0	0	0	501
8	0	0	0	0	513
9	0	0	0	0	536
10	0	0	0	0	496
11	0	0	0	0	507
12	0	0	0	0	508
13	0	0	0	0	485
14	0	0	0	0	517
15	0	0	0	0	512
0	0	0	0	0	583
1	0	0	0	0	511
2	0	0	0	0	559
3	0	0	0	0	471
4	0	0	0	0	532
5	0	0	0	0	494
6	0	0	0	0	499
7	0	0	0	0	481
8	0	0	0	0	498
9	0	0	0	0	531
10	0	0	0	0	488
11	0	0	0	0	488
12	0	0	0	0	561
13	0	0	0	0	505
14	0	0	0	0	499
15	0	0	0	0	516
0	0	0	0	0	516
1	0	0	0	0	486
2	0	0	0	0	502
3	0	0	0	0	506
4	0	0	0	0	495
5	0	0	0	0	544
6	0	0	0	0	495
7	0	0	0	0	544
8	0	0	0	0	564
9	0	0	0	0	489
10	0	0	0	0	522
11	0	0	0	0	491
12	0	0	0	0	481
13	0	0	0	0	510
14	0	0	0	0	516
15	0	0	0	0	491
0	0	0	0	0	543
1	0	0	0	0	491
2	0	0	0	0	503
3	0	0	0	0	588
4	0	0	0	0	490
5	0	0	0	0	480
6	0	0	0	0	519
7	0	0	0	0	505
8	0	0	0	0	507
9	0	0	0	0	510
10	0	0	0	0	533
11	0	0	0	0	488
12	0	0	0	0	501
13	0	0	0	0	508
14	0	0	0	0	565
15	0	0	0	0	507
0	0	0	0	0	509
1	0	0	0	0	489
2	0	0	0	0	534
3	0	0	0	0	498
4	0	0	0	0	515
5	0	0	0	0	523
6	0	0	0	0	524
7	0	0	0	0	505
8	0	0	0	0	500
9	0	0	0	0	553
10	0	0	0	0	534
11	0	0	0	0	502
12	0	0	0	0	464
13	0	0	0	0	499
14	0	0	0	0	473
15	0	0	0	0	486
0	0	0	0	0	511
1	0	0	0	0	488
2	0	0	0	0	531
3	0	0	0	0	512
4	0	0	0	0	444
5	0	0	0	0	500
6	0	0	0	0	540
7	0	0	0	0	472
8	0	0	0	0	499
9	0	0	0	0	508
10	0	0	0	0	502
11	0	0	0	0	497
12	0	0	0	0	593
13	0	0	0	0	531
14	0	0	0	0	529
15	0	0	0	0	569
0	0	0	0	0	524
1	0	0	0	0	544
2	0	0	0	0	513
3	0	0	0	0	711
4	0	0	0	0	460
5	0	0	0	0	476
6	0	0	0	0	527
7	0	0	0	0	495
8	0	0	0	0	516
9	0	0	0	0	439
10	0	0	0	0	513
11	0	0	0	0	359
12	0	0	0	0	524
13	0	0	0	0	503
14	0	0	0	0	518
15	0	0	0	0	510
0	0	0	0	0	534
1	0	0	0	0	473
2	0	0	0	0	617
3	0	0	0	0	487
4	0	0	0	0	617
5	0	0	0	0	534
6	0	0	0	0	502
7	0	0	0	0	496
8	0	0	0	0	507
9	0	0	0	0	421
10	0	0	0	0	467
11	0	0	0	0	535
12	0	0	0	0	479
13	0	0	0	0	456
14	0	0	0	0	529
15	0	0	0	0	476
0	0	0	0	0	505
1	0	0	0	0	503
2	0	0	0	0	526
3	0	0	0	0	493
4	0	0	0	0	471
5	0	0	0	0	548
6	0	0	0	0	525
7	0	0	0	0	434
8	0	0	0	0	541
9	0	0	0	0	483
10	0	0	0	0	535
11	0	0	0	0	496
12	0	0	0	0	594
13	0	0	0	0	451
14	0	0	0	0	586
15	0	0	0	0	483
0	0	0	0	0	540
1	0	0	0	0	481
2	0	0	0	0	473
3	0	0	0	0	443
4	0	0	0	0	502
5	0	0	0	0	445
6	0	0	0	0	524
7	0	0	0	0	476
8	0	0	0	0	504
9	0	0	0	0	445
10	0	0	0	0	502
11	0	0	0	0	539
12	0	0	0	0	563
13	0	0	0	0	515
14	0	0	0	0	559
15	0	0	0	0	561
0	0	0	0	0	460
1	0	0	0	0	518
2	0	0	0	0	515
3	0	0	0	0	513
4	0	0	0	0	570
5	0	0	0	0	506
6	0	0	0	0	540
7	0	0	0	0	495
8	0	0	0	0	551
9	0	0	0	0	580
10	0	0	0	0	512
11	0	0	0	0	531
12	0	0	0	0	595
13	0	0	0	0	540
14	0	0	0	0	522
15	0	0	0	0	492
0	0	0	0	0	559
1	0	0	0	0	506
2	0	0	0	0	508
3	0	0	0	0	476
4	0	0	0	0	525
5	0	0	0	0	519
6	0	0	0	0	612
7	0	0	0	0	486
8	0	0	0	0	502
9	0	0	0	0	491
10	0	0	0	0	466
11	0	0	0	0	476
12	0	0	0	0	532
13	0	0	0	0	527
14	0	0	0	0	542
15	0	0	0	0	563
0	0	0	0	0	602
1	0	0	0	0	467
2	0	0	0	0	524
3	0	0	0	0	444
4	0	0	0	0	572
5	0	0	0	0	453
6	0	0	0	0	522
7	0	0	0	0	543
8	0	0	0	0	541
9	0	0	0	0	494
10	0	0	0	0	487
11	0	0	0	0	568
12	0	0	0	0	537
13	0	0	0	0	529
14	0	0	0	0	498
15	0	0	0	0	422
0	0	0	0	0	536
1	0	0	0	0	499
2	0	0	0	0	483
3	0	0	0	0	596
4	0	0	0	0	534
5	0	0	0	0	530
6	0	0	0	0	531
7	0	0	0	0	472
8	0	0	0	0	497
9	0	0	0	0	460
10	0	0	0	0	620
11	0	0	0	0	470
12	0	0	0	0	514
13	0	0	0	0	507
14	0	0	0	0	534
15	0	0	0	0	478
0	0	0	0	0	557
1	0	0	0	0	537
2	0	0	0	0	497
3	0	0	0	0	492
4	0	0	0	0	529
5	0	0	0	0	513
6	0	0	0	0	575
7	0	0	0	0	489
8	0	0	0	0	514
9	0	0	0	0	615
10	0	0	0	0	533
11	0	0	0	0	531
12	0	0	0	0	528
13	0	0	0	0	428
14	0	0	0	0	505
15	0	0	0	0	449
0	0	0	0	0	535
1	0	0	0	0	535
2	0	0	0	0	517
3	0	0	0	0	495
4	0	0	0	0	477
5	0	0	0	0	481
6	0	0	0	0	532
7	0	0	0	0	490
8	0	0	0	0	538
9	0	0	0	0	551
10	0	0	0	0	540
11	0	0	0	0	588
12	0	0	0	0	536
13	0	0	0	0	492
14	0	0	0	0	531
15	0	0	0	0	461
0	0	0	0	0	501
1	0	0	0	0	530
2	0	0	0	0	557
3	0	0	0	0	470
4	0	0	0	0	593
5	0	0	0	0	490
6	0	0	0	0	563
7	0	0	0	0	491
8	0	0	0	0	534
9	0	0	0	0	613
10	0	0	0	0	526
11	0	0	0	0	516
12	0	0	0	0	554
13	0	0	0	0	480
14	0	0	0	0	518
15	0	0	0	0	485
0	0	0	0	0	687
1	0	0	0	0	485
2	0	0	0	0	564
3	0	0	0	0	481
4	0	0	0	0	545
5	0	0	0	0	434
6	0	0	0	0	568
7	0	0	0	0	461
8	0	0	0	0	483
9	0	0	0	0	472
10	0	0	0	0	531
11	0	0	0	0	632
12	0	0	0	0	519
13	0	0	0	0	440
14	0	0	0	0	540
15	0	0	0	0	492
0	0	0	0	0	524
1	0	0	0	0	502
2	0	0	0	0	522
3	0	0	0	0	593
4	0	0	0	0	516
5	0	0	0	0	505
6	0	0	0	0	529
7	0	0	0	0	511
8	0	0	0	0	572
9	0	0	0	0	471
10	0	0	0	0	472
11	0	0	0	0	632
12	0	0	0	0	529
13	0	0	0	0	416
14	0	0	0	0	460
15	0	0	0	0	387
0	0	0	0	0	537
1	0	0	0	0	476
2	0	0	0	0	505
3	0	0	0	0	555
4	0	0	0	0	528
5	0	0	0	0	494
6	0	0	0	0	531
7	0	0	0	0	485
8	0	0	0	0	515
9	0	0	0	0	490
10	0	0	0	0	507
11	0	0	0	0	485
12	0	0	0	0	520
13	0	0	0	0	444
14	0	0	0	0	524
15	0	0	0	0	480
0	0	0	0	0	562
1	0	0	0	0	496
2	0	0	0	0	519
3	0	0	0	0	498
4	0	0	0	0	516
5	0	0	0	0	492
6	0	0	0	0	535
7	0	0	0	0	351
8	0	0	0	0	504
9	0	0	0	0	458
10	0	0	0	0	505
11	0	0	0	0	472
12	0	0	0	0	538
13	0	0	0	0	585
14	0	0	0	0	498
15	0	0	0	0	542
0	0	0	0	0	536
1	0	0	0	0	505
2	0	0	0	0	538
3	0	0	0	0	571
4	0	0	0	0	527
5	0	0	0	0	442
6	0	0	0	0	531
7	0	0	0	0	484
8	0	0	0	0	522
9	0	0	0	0	472
10	0	0	0	0	473
11	0	0	0	0	449
12	0	0	0	0	528
13	0	0	0	0	521
14	0	0	0	0	539
15	0	0	0	0	453
0	0	0	0	0	530
1	0	0	0	0	587
2	0	0	0	0	556
3	0	0	0	0	475
4	0	0	0	0	529
5	0	0	0	0	477
6	0	0	0	0	702
7	0	0	0	0	391
8	0	0	0	0	556
9	0	0	0	0	459
10	0	0	0	0	578
11	0	0	0	0	467
12	0	0	0	0	585
13	0	0	0	0	398
14	0	0	0	0	503
15	0	0	0	0	471
0	0	0	0	0	384
1	0	0	0	0	523
2	0	0	0	0	780
3	0	0	0	0	398
4	0	0	0	0	651
5	0	0	0	0	423
6	0	0	0	0	547
7	0	0	0	0	583
8	0	0	0	0	472
9	0	0	0	0	520
10	0	0	0	0	555
11	0	0	0	0	384
12	0	0	0	0	595
13	0	0	0	0	299
14	0	0	0	0	764
15	0	0	0	0	271
0	0	0	0	0	618
1	0	0	0	0	439
2	0	0	0	0	343
3	0	0	0	0	708
4	0	0	0	0	347
5	0	0	0	0	570
6	0	0	0	0	835
7	0	0	0	0	411
8	0	0	0	0	1021
9	0	0	0	0	233
10	0	0	0	0	414
11	0	0	0	0	547
12	0	0	0	0	480
13	0	0	0	0	439
14	0	0	0	0	916
15	0	0	0	0	426
0	0	0	0	0	741
1	0	0	0	0	0
2	0	0	0	0	1022
3	0	0	0	0	265
4	0	0	0	0	768
5	0	0	0	0	25
6	0	0	0	0	0
7	0	0	0	0	1022
8	0	0	0	0	592
9	0	0	0	0	412
10	0	0	0	0	147
11	0	0	0	0	239
12	0	0	0	0	1022
13	0	0	0	0	0
14	0	0	0	0	1022
15	0	0	0	0	442
0	0	0	0	0	1022
1	0	0	0	0	1022
2	0	0	0	0	224
3	0	0	0	0	913
4	0	0	0	0	409
5	0	0	0	0	906
6	0	0	0	0	0
7	0	0	0	0	552
8	0	0	0	0	515
9	0	0	0	0	515
10	0	0	0	0	207
11	0	0	0	0	667
12	0	0	0	0	1022
13	0	0	0	0	0
14	0	0	0	0	59
15	0	0	0	0	824
0	0	0	0	0	401
1	0	0	0	0	655
2	0	0	0	0	143
3	0	0	0	0	947
4	0	0	0	0	475
5	0	0	0	0	0
6	0	0	0	0	249
7	0	0	0	0	332
8	0	0	0	0	350
9	0	0	0	0	597
10	0	0	0	0	0
11	0	0	0	0	685
12	0	0	0	0	252
13	0	0	0	0	251
14	0	0	0	0	0
15	0	0	0	0	584
0	0	0	0	0	863
1	0	0	0	0	484
2	0	0	0	0	1022
3	0	0	0	0	249
4	0	0	0	0	938
5	0	0	0	0	621
6	0	0	0	0	847
7	0	0	0	0	81
8	0	0	0	0	927
9	0	0	0	0	224
10	0	0	0	0	489
11	0	0	0	0	615
12	0	0	0	0	337
13	0	0	0	0	823
14	0	0	0	0	408
15	0	0	0	0	713
0	0	0	0	0	212
1	0	0	0	0	499
2	0	0	0	0	514
3	0	0	0	0	511
4	0	0	0	0	482
5	0	0	0	0	659
6	0	0	0	0	477
7	0	0	0	0	453
8	0	0	0	0	397
9	0	0	0	0	495
10	0	0	0	0	479
11	0	0	0	0	455
12	0	0	0	0	582
13	0	0	0	0	488
14	0	0	0	0	500
15	0	0	0	0	465
0	0	0	0	0	544
1	0	0	0	0	463
2	0	0	0	0	533
3	0	0	0	0	526
4	0	0	0	0	583
5	0	0	0	0	447
6	0	0	0	0	579
7	0	0	0	0	495
8	0	0	0	0	521
9	0	0	0	0	512
10	0	0	0	0	569
11	0	0	0	0	508
12	0	0	0	0	508
13	0	0	0	0	551
14	0	0	0	0	486
15	0	0	0	0	470
0	0	0	0	0	558
1	0	0	0	0	476
2	0	0	0	0	497
3	0	0	0	0	497
4	0	0	0	0	547
5	0	0	0	0	501
6	0	0	0	0	561
7	0	0	0	0	512
8	0	0	0	0	497
9	0	0	0	0	512
10	0	0	0	0	500
11	0	0	0	0	535
12	0	0	0	0	501
13	0	0	0	0	460
14	0	0	0	0	545
15	0	0	0	0	506
0	0	0	0	0	508
1	0	0	0	0	571
2	0	0	0	0	517
3	0	0	0	0	475
4	0	0	0	0	566
5	0	0	0	0	483
6	0	0	0	0	491
7	0	0	0	0	550
8	0	0	0	0	501
9	0	0	0	0	501
10	0	0	0	0	553
11	0	0	0	0	495
12	0	0	0	0	495
13	0	0	0	0	512
14	0	0	0	0	495
15	0	0	0	0	502
0	0	0	0	0	534
1	0	0	0	0	500
2	0	0	0	0	485
3	0	0	0	0	508
4	0	0	0	0	553
5	0	0	0	0	503
6	0	0	0	0	514
7	0	0	0	0	508
8	0	0	0	0	494
9	0	0	0	0	502
10	0	0	0	0	561
11	0	0	0	0	480
12	0	0	0	0	488
13	0	0	0	0	539
14	0	0	0	0	467
15	0	0	0	0	498
0	0	0	0	0	513
1	0	0	0	0	514
2	0	0	0	0	547
3	0	0	0	0	501
4	0	0	0	0	496
5	0	0	0	0	519
6	0	0	0	0	515
7	0	0	0	0	505
8	0	0	0	0	475
9	0	0	0	0	545
10	0	0	0	0	516
11	0	0	0	0	513
12	0	0	0	0	532
13	0	0	0	0	495
14	0	0	0	0	499
15	0	0	0	0	507
0	0	0	0	0	510
1	0	0	0	0	513
2	0	0	0	0	503
3	0	0	0	0	540
4	0	0	0	0	549
5	0	0	0	0	485
6	0	0	0	0	495
7	0	0	0	0	517
8	0	0	0	0	527
9	0	0	0	0	491
10	0	0	0	0	529
11	0	0	0	0	505
12	0	0	0	0	486
13	0	0	0	0	515
14	0	0	0	0	518
15	0	0	0	0	509
0	0	0	0	0	512
1	0	0	0	0	518
2	0	0	0	0	507
3	0	0	0	0	523
4	0	0	0	0	531
5	0	0	0	0	514
6	0	0	0	0	510
7	0	0	0	0	526
8	0	0	0	0	515
9	0	0	0	0	503
10	0	0	0	0	545
11	0	0	0	0	510
12	0	0	0	0	488
13	0	0	0	0	535
14	0	0	0	0	521
15	0	0	0	0	515
0	0	0	0	0	505
1	0	0	0	0	512
2	0	0	0	0	532
3	0	0	0	0	501
4	0	0	0	0	496
5	0	0	0	0	495
6	0	0	0	0	497
7	0	0	0	0	536
8	0	0	0	0	518
9	0	0	0	0	508
10	0	0	0	0	514
11	0	0	0	0	517
12	0	0	0	0	515
13	0	0	0	0	527
14	0	0	0	0	536
15	0	0	0	0	515
0	0	0	0	0	511
1	0	0	0	0	510
2	0	0	0	0	502
3	0	0	0	0	488
4	0	0	0	0	484
5	0	0	0	0	497
6	0	0	0	0	515
7	0	0	0	0	518
8	0	0	0	0	509
9	0	0	0	0	517
10	0	0	0	0	493
11	0	0	0	0	532
12	0	0	0	0	490
13	0	0	0	0	513
14	0	0	0	0	459
15	0	0	0	0	487
0	0	0	0	0	506
1	0	0	0	0	546
2	0	0	0	0	493
3	0	0	0	0	519
4	0	0	0	0	497
5	0	0	0	0	613
6	0	0	0	0	513
7	0	0	0	0	491
8	0	0	0	0	531
9	0	0	0	0	517
10	0	0	0	0	494
11	0	0	0	0	512
12	0	0	0	0	509
13	0	0	0	0	440
14	0	0	0	0	526
15	0	0	0	0	498
0	0	0	0	0	495
1	0	0	0	0	511
2	0	0	0	0	491
3	0	0	0	0	559
4	0	0	0	0	542
5	0	0	0	0	521
6	0	0	0	0	515
7	0	0	0	0	493
8	0	0	0	0	505
9	0	0	0	0	496
10	0	0	0	0	515
11	0	0	0	0	545
12	0	0	0	0	496
13	0	0	0	0	675
14	0	0	0	0	447
15	0	0	0	0	523
0	0	0	0	0	505
1	0	0	0	0	573
2	0	0	0	0	508
3	0	0	0	0	517
4	0	0	0	0	532
5	0	0	0	0	460
6	0	0	0	0	556
7	0	0	0	0	555
8	0	0	0	0	487
9	0	0	0	0	516
10	0	0	0	0	495
11	0	0	0	0	540
12	0	0	0	0	500
13	0	0	0	0	512
14	0	0	0	0	546
15	0	0	0	0	526
0	0	0	0	0	574
1	0	0	0	0	475
2	0	0	0	0	516
3	0	0	0	0	520
4	0	0	0	0	556
5	0	0	0	0	498
6	0	0	0	0	493
7	0	0	0	0	530
8	0	0	0	0	509
9	0	0	0	0	715
10	0	0	0	0	474
11	0	0	0	0	495
12	0	0	0	0	482
13	0	0	0	0	516
14	0	0	0	0	527
15	0	0	0	0	503
0	0	0	0	0	460
1	0	0	0	0	507
2	0	0	0	0	553
3	0	0	0	0	545
4	0	0	0	0	500
5	0	0	0	0	523
6	0	0	0	0	471
7	0	0	0	0	566
8	0	0	0	0	473
9	0	0	0	0	503
10	0	0	0	0	518
11	0	0	0	0	519
12	0	0	0	0	509
13	0	0	0	0	573
14	0	0	0	0	455
15	0	0	0	0	479
0	0	0	0	0	489
1	0	0	0	0	523
2	0	0	0	0	501
3	0	0	0	0	540
4	0	0	0	0	585
5	0	0	0	0	502
6	0	0	0	0	478
7	0	0	0	0	495
8	0	0	0	0	559
9	0	0	0	0	524
10	0	0	0	0	535
11	0	0	0	0	495
12	0	0	0	0	483
13	0	0	0	0	544
14	0	0	0	0	521
15	0	0	0	0	508
0	0	0	0	0	546
1	0	0	0	0	499
2	0	0	0	0	497
3	0	0	0	0	534
4	0	0	0	0	517
5	0	0	0	0	547
6	0	0	0	0	513
7	0	0	0	0	540
8	0	0	0	0	496
9	0	0	0	0	519
10	0	0	0	0	481
11	0	0	0	0	498
12	0	0	0	0	514
13	0	0	0	0	511
14	0	0	0	0	519
15	0	0	0	0	524
0	0	0	0	0	503
1	0	0	0	0	503
2	0	0	0	0	504
3	0	0	0	0	491
4	0	0	0	0	528
5	0	0	0	0	519
6	0	0	0	0	499
7	0	0	0	0	496
8	0	0	0	0	476
9	0	0	0	0	562
10	0	0	0	0	494
11	0	0	0	0	512
12	0	0	0	0	499
13	0	0	0	0	518
14	0	0	0	0	553
15	0	0	0	0	513
0	0	0	0	0	467
1	0	0	0	0	512
2	0	0	0	0	560
3	0	0	0	0	528
4	0	0	0	0	512
5	0	0	0	0	489
6	0	0	0	0	502
7	0	0	0	0	522
8	0	0	0	0	486
9	0	0	0	0	504
10	0	0	0	0	536
11	0	0	0	0	456
12	0	0	0	0	528
13	0	0	0	0	492
14	0	0	0	0	506
15	0	0	0	0	506
0	0	0	0	0	496
1	0	0	0	0	524
2	0	0	0	0	526
3	0	0	0	0	520
4	0	0	0	0	503
5	0	0	0	0	572
6	0	0	0	0	502
7	0	0	0	0	499
8	0	0	0	0	489
9	0	0	0	0	512
10	0	0	0	0	501
11	0	0	0	0	525
12	0	0	0	0	530
13	0	0	0	0	528
14	0	0	0	0	523
15	0	0	0	0	518
0	0	0	0	0	519
1	0	0	0	0	527
2	0	0	0	0	505
3	0	0	0	0	489
4	0	0	0	0	547
5	0	0	0	0	516
6	0	0	0	0	541
7	0	0	0	0	540
8	0	0	0	0	487
9	0	0	0	0	522
10	0	0	0	0	474
11	0	0	0	0	517
12	0	0	0	0	414
13	0	0	0	0	469
14	0	0	0	0	534
15	0	0	0	0	519
0	0	0	0	0	522
1	0	0	0	0	529
2	0	0	0	0	492
3	0	0	0	0	489
4	0	0	0	0	567
5	0	0	0	0	484
6	0	0	0	0	492
7	0	0	0	0	506
8	0	0	0	0	519
9	0	0	0	0	531
10	0	0	0	0	471
11	0	0	0	0	522
12	0	0	0	0	558
13	0	0	0	0	497
14	0	0	0	0	504
15	0	0	0	0	495
0	0	0	0	0	441
1	0	0	0	0	603
2	0	0	0	0	325
3	0	0	0	0	780
4	0	0	0	0	1022
5	0	0	0	0	394
6	0	0	0	0	647
7	0	0	0	0	371
8	0	0	0	0	423
9	0	0	0	0	425
10	0	0	0	0	974
11	0	0	0	0	588
12	0	0	0	0	187
13	0	0	0	0	493
14	0	0	0	0	375
15	0	0	0	0	434
0	0	0	0	0	798
1	0	0	0	0	265
2	0	0	0	0	671
3	0	0	0	0	753
4	0	0	0	0	282
5	0	0	0	0	432
6	0	0	0	0	251
7	0	0	0	0	418
8	0	0	0	0	588
9	0	0	0	0	380
10	0	0	0	0	621
11	0	0	0	0	414
12	0	0	0	0	448
13	0	0	0	0	431
14	0	0	0	0	410
15	0	0	0	0	924
0	0	0	0	0	0
1	0	0	0	0	1022
2	0	0	0	0	353
3	0	0	0	0	407
4	0	0	0	0	216
5	0	0	0	0	422
6	0	0	0	0	523
7	0	0	0	0	1022
8	0	0	0	0	411
9	0	0	0	0	554
10	0	0	0	0	504
11	0	0	0	0	427
12	0	0	0	0	588
13	0	0	0	0	0
14	0	0	0	0	1022
15	0	0	0	0	387
0	0	0	0	0	613
1	0	0	0	0	0
2	0	0	0	0	0
3	0	0	0	0	719
4	0	0	0	0	0
5	0	0	0	0	399
6	0	0	0	0	0
7	0	0	0	0	455
8	0	0	0	0	684
9	0	0	0	0	727
10	0	0	0	0	324
11	0	0	0	0	858
12	0	0	0	0	1022
13	0	0	0	0	0
14	0	0	0	0	1022
15	0	0	0	0	265
0	0	0	0	0	655
1	0	0	0	0	183
2	0	0	0	0	768
3	0	0	0	0	366
4	0	0	0	0	686
5	0	0	0	0	1022
6	0	0	0	0	445
7	0	0	0	0	0
8	0	0	0	0	429
9	0	0	0	0	1022
10	0	0	0	0	484
11	0	0	0	0	191
12	0	0	0	0	684
13	0	0	0	0	211
14	0	0	0	0	464
15	0	0	0	0	1022
0	0	0	0	0	294
1	0	0	0	0	426
2	0	0	0	0	1022
3	0	0	0	0	575
4	0	0	0	0	0
5	0	0	0	0	28
6	0	0	0	0	748
7	0	0	0	0	558
8	0	0	0	0	79
9	0	0	0	0	210
10	0	0	0	0	121
11	0	0	0	0	548
12	0	0	0	0	877
13	0	0	0	0	0
14	0	0	0	0	781
15	0	0	0	0	600
0	0	0	0	0	275
1	0	0	0	0	945
2	0	0	0	0	454
3	0	0	0	0	620
4	0	0	0	0	0
5	0	0	0	0	588
6	0	0	0	0	343
7	0	0	0	0	339
8	0	0	0	0	576
9	0	0	0	0	932
10	0	0	0	0	663
11	0	0	0	0	0
12	0	0	0	0	692
13	0	0	0	0	78
14	0	0	0	0	201
15	0	0	0	0	156
0	0	0	0	0	664
1	0	0	0	0	952
2	0	0	0	0	509
3	0	0	0	0	921
4	0	0	0	0	429
5	0	0	0	0	745
6	0	0	0	0	434
7	0	0	0	0	504
8	0	0	0	0	763
9	0	0	0	0	692
10	0	0	0	0	379
11	0	0	0	0	704
12	0	0	0	0	446
13	0	0	0	0	496
14	0	0	0	0	550
15	0	0	0	0	670
0	0	0	0	0	428
1	0	0	0	0	307
2	0	0	0	0	591
3	0	0	0	0	479
4	0	0	0	0	484
5	0	0	0	0	530
6	0	0	0	0	508
7	0	0	0	0	519
8	0	0	0	0	577
9	0	0	0	0	447
10	0	0	0	0	475
11	0	0	0	0	529
12	0	0	0	0	458
13	0	0	0	0	505
14	0	0	0	0	474
15	0	0	0	0	518
0	0	0	0	0	467
1	0	0	0	0	617
2	0	0	0	0	447
3	0	0	0	0	540
4	0	0	0	0	483
5	0	0	0	0	582
6	0	0	0	0	507
7	0	0	0	0	514
8	0	0	0	0	545
9	0	0	0	0	558
10	0	0	0	0	503
11	0	0	0	0	479
12	0	0	0	0	547
13	0	0	0	0	517
14	0	0	0	0	503
15	0	0	0	0	506
0	0	0	0	0	517
1	0	0	0	0	508
2	0	0	0	0	510
3	0	0	0	0	529
4	0	0	0	0	502
5	0	0	0	0	516
6	0	0	0	0	544
7	0	0	0	0	494
8	0	0	0	0	517
9	0	0	0	0	522
10	0	0	0	0	532
11	0	0	0	0	533
12	0	0	0	0	517
13	0	0	0	0	511
14	0	0	0	0	534
15	0	0	0	0	494
0	0	0	0	0	493
1	0	0	0	0	537
2	0	0	0	0	495
3	0	0	0	0	502
4	0	0	0	0	504
5	0	0	0	0	511
6	0	0	0	0	495
7	0	0	0	0	556
8	0	0	0	0	458
9	0	0	0	0	576
10	0	0	0	0	499
11	0	0	0	0	530
12	0	0	0	0	504
13	0	0	0	0	485
14	0	0	0	0	548
15	0	0	0	0	503
0	0	0	0	0	509
1	0	0	0	0	512
2	0	0	0	0	513
3	0	0	0	0	515
4	0	0	0	0	469
5	0	0	0	0	539
6	0	0	0	0	515
7	0	0	0	0	496
8	0	0	0	0	504
9	0	0	0	0	518
10	0	0	0	0	503
11	0	0	0	0	528
12	0	0	0	0	493
13	0	0	0	0	536
14	0	0	0	0	530
15	0	0	0	0	552
0	0	0	0	0	497
1	0	0	0	0	528
2	0	0	0	0	497
3	0	0	0	0	533
4	0	0	0	0	540
5	0	0	0	0	497
6	0	0	0	0	532
7	0	0	0	0	507
8	0	0	0	0	504
9	0	0	0	0	522
10	0	0	0	0	495
11	0	0	0	0	532
12	0	0	0	0	494
13	0	0	0	0	536
14	0	0	0	0	492
15	0	0	0	0	562
0	0	0	0	0	502
1	0	0	0	0	533
2	0	0	0	0	488
3	0	0	0	0	571
4	0	0	0	0	511
5	0	0	0	0	523
6	0	0	0	0	509
7	0	0	0	0	534
8	0	0	0	0	498
9	0	0	0	0	509
10	0	0	0	0	505
11	0	0	0	0	539
12	0	0	0	0	498
13	0	0	0	0	528
14	0	0	0	0	505
15	0	0	0	0	548
0	0	0	0	0	476
1	0	0	0	0	519
2	0	0	0	0	480
3	0	0	0	0	518
4	0	0	0	0	508
5	0	0	0	0	528
6	0	0	0	0	489
7	0	0	0	0	521
8	0	0	0	0	534
9	0	0	0	0	520
10	0	0	0	0	498
11	0	0	0	0	526
12	0	0	0	0	519
13	0	0	0	0	543
14	0	0	0	0	494
15	0	0	0	0	515
0	0	0	0	0	496
1	0	0	0	0	515
2	0	0	0	0	485
3	0	0	0	0	587
4	0	0	0	0	491
5	0	0	0	0	530
6	0	0	0	0	520
7	0	0	0	0	518
8	0	0	0	0	515
9	0	0	0	0	527
10	0	0	0	0	495
11	0	0	0	0	529
12	0	0	0	0	493
13	0	0	0	0	537
14	0	0	0	0	495
15	0	0	0	0	516
0	0	0	0	0	492
1	0	0	0	0	580
2	0	0	0	0	511
3	0	0	0	0	518
4	0	0	0	0	479
5	0	0	0	0	526
6	0	0	0	0	519
7	0	0	0	0	520
8	0	0	0	0	481
9	0	0	0	0	515
10	0	0	0	0	526
11	0	0	0	0	515
12	0	0	0	0	606
13	0	0	0	0	527
14	0	0	0	0	497
15	0	0	0	0	538
0	0	0	0	0	497
1	0	0	0	0	607
2	0	0	0	0	529
3	0	0	0	0	515
4	0	0	0	0	529
5	0	0	0	0	532
6	0	0	0	0	480
7	0	0	0	0	555
8	0	0	0	0	483
9	0	0	0	0	535
10	0	0	0	0	488
11	0	0	0	0	549
12	0	0	0	0	488
13	0	0	0	0	505
14	0	0	0	0	516
15	0	0	0	0	557
0	0	0	0	0	504
1	0	0	0	0	513
2	0	0	0	0	466
3	0	0	0	0	565
4	0	0	0	0	523
5	0	0	0	0	556
6	0	0	0	0	472
7	0	0	0	0	513
8	0	0	0	0	483
9	0	0	0	0	516
10	0	0	0	0	501
11	0	0	0	0	511
12	0	0	0	0	505
13	0	0	0	0	514
14	0	0	0	0	485
15	0	0	0	0	497
0	0	0	0	0	483
1	0	0	0	0	536
2	0	0	0	0	476
3	0	0	0	0	542
4	0	0	0	0	475
5	0	0	0	0	529
6	0	0	0	0	512
7	0	0	0	0	548
8	0	0	0	0	479
9	0	0	0	0	548
10	0	0	0	0	480
11	0	0	0	0	523
12	0	0	0	0	490
13	0	0	0	0	529
14	0	0	0	0	529
15	0	0	0	0	543
0	0	0	0	0	527
1	0	0	0	0	588
2	0	0	0	0	481
3	0	0	0	0	531
4	0	0	0	0	491
5	0	0	0	0	537
6	0	0	0	0	513
7	0	0	0	0	564
8	0	0	0	0	480
9	0	0	0	0	512
10	0	0	0	0	496
11	0	0	0	0	531
12	0	0	0	0	501
13	0	0	0	0	530
14	0	0	0	0	479
15	0	0	0	0	565
0	0	0	0	0	511
1	0	0	0	0	555
2	0	0	0	0	486
3	0	0	0	0	532
4	0	0	0	0	481
5	0	0	0	0	530
6	0	0	0	0	594
7	0	0	0	0	574
8	0	0	0	0	507
9	0	0	0	0	502
10	0	0	0	0	459
11	0	0	0	0	590
12	0	0	0	0	573
13	0	0	0	0	461
14	0	0	0	0	1022
15	0	0	0	0	351
0	0	0	0	0	356
1	0	0	0	0	339
2	0	0	0	0	113
3	0	0	0	0	509
4	0	0	0	0	634
5	0	0	0	0	365
6	0	0	0	0	746
7	0	0	0	0	404
8	0	0	0	0	0
9	0	0	0	0	889
10	0	0	0	0	0
11	0	0	0	0	299
12	0	0	0	0	800
13	0	0	0	0	1022
14	0	0	0	0	788
15	0	0	0	0	448
0	0	0	0	0	260
1	0	0	0	0	607
2	0	0	0	0	830
3	0	0	0	0	704
4	0	0	0	0	0
5	0	0	0	0	680
6	0	0	0	0	1022
7	0	0	0	0	617
8	0	0	0	0	488
9	0	0	0	0	553
10	0	0	0	0	356
11	0	0	0	0	1022
12	0	0	0	0	132
13	0	0	0	0	281
14	0	0	0	0	556
15	0	0	0	0	544
0	0	0	0	0	404
1	0	0	0	0	233
2	0	0	0	0	703
3	0	0	0	0	906
4	0	0	0	0	15
5	0	0	0	0	310
6	0	0	0	0	714
7	0	0	0	0	572
8	0	0	0	0	996
9	0	0	0	0	461
10	0	0	0	0	726
11	0	0	0	0	575
12	0	0	0	0	536
13	0	0	0	0	549
14	0	0	0	0	517
15	0	0	0	0	578
0	0	0	0	0	1022
1	0	0	0	0	309
2	0	0	0	0	521
3	0	0	0	0	366
4	0	0	0	0	472
5	0	0	0	0	541
6	0	0	0	0	0
7	0	0	0	0	755
8	0	0	0	0	201
9	0	0	0	0	390
10	0	0	0	0	1022
11	0	0	0	0	302
12	0	0	0	0	58
13	0	0	0	0	167
14	0	0	0	0	629
15	0	0	0	0	429
0	0	0	0	0	816
1	0	0	0	0	606
2	0	0	0	0	0
3	0	0	0	0	281
4	0	0	0	0	641
5	0	0	0	0	834
6	0	0	0	0	281
7	0	0	0	0	412
8	0	0	0	0	707
9	0	0	0	0	767
10	0	0	0	0	0
11	0	0	0	0	39
12	0	0	0	0	568
13	0	0	0	0	951
14	0	0	0	0	148
15	0	0	0	0	383
0	0	0	0	0	819
1	0	0	0	0	1022
2	0	0	0	0	0
3	0	0	0	0	603
4	0	0	0	0	214
5	0	0	0	0	299
6	0	0	0	0	840
7	0	0	0	0	326
8	0	0	0	0	694
9	0	0	0	0	502
10	0	0	0	0	0
11	0	0	0	0	779
12	0	0	0	0	0
13	0	0	0	0	280
14	0	0	0	0	507
15	0	0	0	0	32
0	0	0	0	0	340
1	0	0	0	0	306
2	0	0	0	0	625
3	0	0	0	0	948
4	0	0	0	0	1022
5	0	0	0	0	0
6	0	0	0	0	445
7	0	0	0	0	650
8	0	0	0	0	754
9	0	0	0	0	214
10	0	0	0	0	444
11	0	0	0	0	113
12	0	0	0	0	738
13	0	0	0	0	735
14	0	0	0	0	0
15	0	0	0	0	348
0	0	0	0	0	1022
1	0	0	0	0	0
2	0	0	0	0	498
3	0	0	0	0	534
4	0	0	0	0	759
5	0	0	0	0	548
6	0	0	0	0	368
7	0	0	0	0	385
8	0	0	0	0	617
9	0	0	0	0	509
10	0	0	0	0	605
11	0	0	0	0	235
12	0	0	0	0	671
13	0	0	0	0	433
14	0	0	0	0	366
15	0	0	0	0	512
0	0	0	0	0	363
1	0	0	0	0	577
2	0	0	0	0	409
3	0	0	0	0	635
4	0	0	0	0	554
5	0	0	0	0	465
6	0	0	0	0	547
7	0	0	0	0	408
8	0	0	0	0	615
9	0	0	0	0	388
10	0	0	0	0	619
11	0	0	0	0	579
12	0	0	0	0	455
13	0	0	0	0	626
14	0	0	0	0	445
15	0	0	0	0	522
0	0	0	0	0	648
1	0	0	0	0	393
2	0	0	0	0	571
3	0	0	0	0	507
4	0	0	0	0	531
5	0	0	0	0	574
6	0	0	0	0	581
7	0	0	0	0	440
8	0	0	0	0	531
9	0	0	0	0	454
10	0	0	0	0	441
11	0	0	0	0	645
12	0	0	0	0	468
13	0	0	0	0	502
14	0	0	0	0	539
15	0	0	0	0	489
0	0	0	0	0	485
1	0	0	0	0	507
2	0	0	0	0	505
3	0	0	0	0	510
4	0	0	0	0	528
5	0	0	0	0	505
6	0	0	0	0	510
7	0	0	0	0	531
8	0	0	0	0	529
9	0	0	0	0	489
10	0	0	0	0	579
11	0	0	0	0	432
12	0	0	0	0	486
13	0	0	0	0	506
14	0	0	0	0	513
15	0	0	0	0	547
0	0	0	0	0	510
1	0	0	0	0	547
2	0	0	0	0	485
3	0	0	0	0	539
4	0	0	0	0	511
5	0	0	0	0	503
6	0	0	0	0	499
7	0	0	0	0	460
8	0	0	0	0	523
9	0	0	0	0	568
10	0	0	0	0	505
11	0	0	0	0	520
12	0	0	0	0	501
13	0	0	0	0	507
14	0	0	0	0	490
15	0	0	0	0	551
0	0	0	0	0	542
1	0	0	0	0	483
2	0	0	0	0	483
3	0	0	0	0	504
4	0	0	0	0	597
5	0	0	0	0	502
6	0	0	0	0	469
7	0	0	0	0	547
8	0	0	0	0	496
9	0	0	0	0	538
10	0	0	0	0	511
11	0	0	0	0	508
12	0	0	0	0	516
13	0	0	0	0	502
14	0	0	0	0	478
15	0	0	0	0	510
0	0	0	0	0	490
1	0	0	0	0	507
2	0	0	0	0	492
3	0	0	0	0	487
4	0	0	0	0	591
5	0	0	0	0	510
6	0	0	0	0	514
7	0	0	0	0	509
8	0	0	0	0	514
9	0	0	0	0	514
10	0	0	0	0	503
11	0	0	0	0	506
12	0	0	0	0	514
13	0	0	0	0	517
14	0	0	0	0	536
15	0	0	0	0	505
0	0	0	0	0	513
1	0	0	0	0	509
2	0	0	0	0	527
3	0	0	0	0	514
4	0	0	0	0	516
5	0	0	0	0	513
6	0	0	0	0	507
7	0	0	0	0	499
8	0	0	0	0	537
9	0	0	0	0	483
10	0	0	0	0	551
11	0	0	0	0	481
12	0	0	0	0	546
13	0	0	0	0	501
14	0	0	0	0	503
15	0	0	0	0	536
0	0	0	0	0	501
1	0	0	0	0	543
2	0	0	0	0	504
3	0	0	0	0	498
4	0	0	0	0	519
5	0	0	0	0	506
6	0	0	0	0	526
7	0	0	0	0	483
8	0	0	0	0	511
9	0	0	0	0	515
10	0	0	0	0	500
11	0	0	0	0	517
12	0	0	0	0	524
13	0	0	0	0	511
14	0	0	0	0	510
15	0	0	0	0	504
0	0	0	0	0	505
1	0	0	0	0	508
2	0	0	0	0	511
3	0	0	0	0	515
4	0	0	0	0	504
5	0	0	0	0	515
6	0	0	0	0	515
7	0	0	0	0	496
8	0	0	0	0	513
9	0	0	0	0	479
10	0	0	0	0	547
11	0	0	0	0	519
12	0	0	0	0	519
13	0	0	0	0	505
14	0	0	0	0	505
15	0	0	0	0	511
0	0	0	0	0	519
1	0	0	0	0	495
2	0	0	0	0	508
3	0	0	0	0	517
4	0	0	0	0	516
5	0	0	0	0	455
6	0	0	0	0	514
7	0	0	0	0	508
8	0	0	0	0	514
9	0	0	0	0	513
10	0	0	0	0	522
11	0	0	0	0	518
12	0	0	0	0	517
13	0	0	0	0	507
14	0	0	0	0	486
15	0	0	0	0	556
0	0	0	0	0	518
1	0	0	0	0	500
2	0	0	0	0	532
3	0	0	0	0	507
4	0	0	0	0	536
5	0	0	0	0	499
6	0	0	0	0	529
7	0	0	0	0	514
8	0	0	0	0	543
9	0	0	0	0	504
10	0	0	0	0	524
11	0	0	0	0	508
12	0	0	0	0	520
13	0	0	0	0	504
14	0	0	0	0	561
15	0	0	0	0	502
0	0	0	0	0	516
1	0	0	0	0	512
2	0	0	0	0	515
3	0	0	0	0	515
4	0	0	0	0	528
5	0	0	0	0	506
6	0	0	0	0	513
7	0	0	0	0	526
8	0	0	0	0	516
9	0	0	0	0	504
10	0	0	0	0	518
11	0	0	0	0	507
12	0	0	0	0	519
13	0	0	0	0	507
14	0	0	0	0	518
15	0	0	0	0	510
0	0	0	0	0	515
1	0	0	0	0	511
2	0	0	0	0	521
3	0	0	0	0	493
4	0	0	0	0	524
5	0	0	0	0	511
6	0	0	0	0	524
7	0	0	0	0	503
8	0	0	0	0	519
9	0	0	0	0	504
10	0	0	0	0	522
11	0	0	0	0	502
12	0	0	0	0	522
13	0	0	0	0	503
14	0	0	0	0	525
15	0	0	0	0	505
0	0	0	0	0	527
1	0	0	0	0	507
2	0	0	0	0	523
3	0	0	0	0	498
4	0	0	0	0	535
5	0	0	0	0	501
6	0	0	0	0	543
7	0	0	0	0	534
8	0	0	0	0	515
9	0	0	0	0	479
10	0	0	0	0	507
11	0	0	0	0	492
12	0	0	0	0	515
13	0	0	0	0	510
14	0	0	0	0	555
15	0	0	0	0	527
0	0	0	0	0	528
1	0	0	0	0	443
2	0	0	0	0	613
3	0	0	0	0	507
4	0	0	0	0	519
5	0	0	0	0	509
6	0	0	0	0	529
7	0	0	0	0	494
8	0	0	0	0	584
9	0	0	0	0	524
10	0	0	0	0	482
11	0	0	0	0	400
12	0	0	0	0	480
13	0	0	0	0	564
14	0	0	0	0	467
15	0	0	0	0	601
0	0	0	0	0	456
1	0	0	0	0	609
2	0	0	0	0	578
3	0	0	0	0	478
4	0	0	0	0	694
5	0	0	0	0	382
6	0	0	0	0	423
7	0	0	0	0	615
8	0	0	0	0	417
9	0	0	0	0	591
10	0	0	0	0	465
11	0	0	0	0	615
12	0	0	0	0	928
13	0	0	0	0	344
14	0	0	0	0	211
15	0	0	0	0	362
0	0	0	0	0	459
1	0	0	0	0	502
2	0	0	0	0	141
3	0	0	0	0	769
4	0	0	0	0	349
5	0	0	0	0	471
6	0	0	0	0	1022
7	0	0	0	0	217
8	0	0	0	0	585
9	0	0	0	0	431
10	0	0	0	0	529
11	0	0	0	0	655
12	0	0	0	0	323
13	0	0	0	0	607
14	0	0	0	0	887
15	0	0	0	0	362
0	0	0	0	0	574
1	0	0	0	0	167
2	0	0	0	0	533
3	0	0	0	0	503
4	0	0	0	0	603
5	0	0	0	0	599
6	0	0	0	0	186
7	0	0	0	0	1017
8	0	0	0	0	326
9	0	0	0	0	407
10	0	0	0	0	1022
11	0	0	0	0	177
12	0	0	0	0	538
13	0	0	0	0	799
14	0	0	0	0	476
15	0	0	0	0	525
0	0	0	0	0	411
1	0	0	0	0	544
2	0	0	0	0	744
3	0	0	0	0	0
4	0	0	0	0	788
5	0	0	0	0	392
6	0	0	0	0	812
7	0	0	0	0	179
8	0	0	0	0	744
9	0	0	0	0	275
10	0	0	0	0	863
11	0	0	0	0	195
12	0	0	0	0	451
13	0	0	0	0	557
14	0	0	0	0	947
15	0	0	0	0	844
0	0	0	0	0	0
1	0	0	0	0	657
2	0	0	0	0	598
3	0	0	0	0	269
4	0	0	0	0	589
5	0	0	0	0	626
6	0	0	0	0	204
7	0	0	0	0	409
8	0	0	0	0	753
9	0	0	0	0	658
10	0	0	0	0	749
11	0	0	0	0	0
12	0	0	0	0	1022
13	0	0	0	0	86
14	0	0	0	0	1022
15	0	0	0	0	360
0	0	0	0	0	452
1	0	0	0	0	328
2	0	0	0	0	615
3	0	0	0	0	668
4	0	0	0	0	399
5	0	0	0	0	880
6	0	0	0	0	78
7	0	0	0	0	416
8	0	0	0	0	235
9	0	0	0	0	433
10	0	0	0	0	842
11	0	0	0	0	0
12	0	0	0	0	465
13	0	0	0	0	0
14	0	0	0	0	858
15	0	0	0	0	78
0	0	0	0	0	587
1	0	0	0	0	237
2	0	0	0	0	487
3	0	0	0	0	1022
4	0	0	0	0	1022
5	0	0	0	0	608
6	0	0	0	0	481
7	0	0	0	0	261
8	0	0	0	0	470
9	0	0	0	0	0
10	0	0	0	0	751
11	0	0	0	0	173
12	0	0	0	0	672
13	0	0	0	0	197
14	0	0	0	0	1022
15	0	0	0	0	353
0	0	0	0	0	567
1	0	0	0	0	1021
2	0	0	0	0	733
3	0	0	0	0	185
4	0	0	0	0	1022
5	0	0	0	0	548
6	0	0	0	0	57
7	0	0	0	0	1022
8	0	0	0	0	127
9	0	0	0	0	364
10	0	0	0	0	567
11	0	0	0	0	1022
12	0	0	0	0	294
13	0	0	0	0	523
14	0	0	0	0	642
15	0	0	0	0	282
0	0	0	0	0	1022
1	0	0	0	0	147
2	0	0	0	0	201
3	0	0	0	0	488
4	0	0	0	0	915
5	0	0	0	0	264
6	0	0	0	0	370
7	0	0	0	0	602
8	0	0	0	0	843
9	0	0	0	0	337
10	0	0	0	0	472
11	0	0	0	0	460
12	0	0	0	0	454
13	0	0	0	0	487
14	0	0	0	0	656
15	0	0	0	0	509
0	0	0	0	0	369
1	0	0	0	0	610
2	0	0	0	0	586
3	0	0	0	0	444
4	0	0	0	0	529
5	0	0	0	0	537
6	0	0	0	0	478
7	0	0	0	0	547
8	0	0	0	0	453
9	0	0	0	0	547
10	0	0	0	0	504
11	0	0	0	0	508
12	0	0	0	0	462
13	0	0	0	0	476
14	0	0	0	0	500
15	0	0	0	0	494
0	0	0	0	0	504
1	0	0	0	0	504
2	0	0	0	0	531
3	0	0	0	0	491
4	0	0	0	0	506
5	0	0	0	0	510
6	0	0	0	0	647
7	0	0	0	0	485
8	0	0	0	0	495
9	0	0	0	0	515
10	0	0	0	0	491
11	0	0	0	0	492
12	0	0	0	0	539
13	0	0	0	0	498
14	0	0	0	0	519
15	0	0	0	0	522
0	0	0	0	0	497
1	0	0	0	0	540
2	0	0	0	0	513
3	0	0	0	0	507
4	0	0	0	0	497
5	0	0	0	0	508
6	0	0	0	0	507
7	0	0	0	0	523
8	0	0	0	0	519
9	0	0	0	0	515
10	0	0	0	0	523
11	0	0	0	0	509
12	0	0	0	0	577
13	0	0	0	0	506
14	0	0	0	0	485
15	0	0	0	0	510
0	0	0	0	0	528
1	0	0	0	0	502
2	0	0	0	0	509
3	0	0	0	0	504
4	0	0	0	0	514
5	0	0	0	0	467
6	0	0	0	0	583
7	0	0	0	0	489
8	0	0	0	0	537
9	0	0	0	0	487
10	0	0	0	0	507
11	0	0	0	0	512
12	0	0	0	0	522
13	0	0	0	0	512
14	0	0	0	0	518
15	0	0	0	0	493
0	0	0	0	0	532
1	0	0	0	0	530
2	0	0	0	0	522
3	0	0	0	0	500
4	0	0	0	0	513
5	0	0	0	0	499
6	0	0	0	0	513
7	0	0	0	0	513
8	0	0	0	0	486
9	0	0	0	0	563
10	0	0	0	0	507
11	0	0	0	0	491
12	0	0	0	0	534
13	0	0	0	0	466
14	0	0	0	0	513
15	0	0	0	0	514
0	0	0	0	0	519
1	0	0	0	0	511
2	0	0	0	0	518
3	0	0	0	0	535
4	0	0	0	0	505
5	0	0	0	0	492
6	0	0	0	0	512
7	0	0	0	0	525
8	0	0	0	0	524
9	0	0	0	0	508
10	0	0	0	0	520
11	0	0	0	0	501
12	0	0	0	0	515
13	0	0	0	0	513
14	0	0	0	0	513
15	0	0	0	0	463
0	0	0	0	0	580
1	0	0	0	0	488
2	0	0	0	0	494
3	0	0	0	0	499
4	0	0	0	0	531
5	0	0	0	0	521
6	0	0	0	0	495
7	0	0	0	0	486
8	0	0	0	0	495
9	0	0	0	0	539
10	0	0	0	0	507
11	0	0	0	0	497
12	0	0	0	0	531
13	0	0	0	0	508
14	0	0	0	0	559
15	0	0	0	0	497
0	0	0	0	0	535
1	0	0	0	0	495
2	0	0	0	0	526
3	0	0	0	0	482
4	0	0	0	0	538
5	0	0	0	0	521
6	0	0	0	0	505
7	0	0	0	0	495
8	0	0	0	0	512
9	0	0	0	0	508
10	0	0	0	0	519
11	0	0	0	0	506
12	0	0	0	0	524
13	0	0	0	0	502
14	0	0	0	0	513
15	0	0	0	0	560
0	0	0	0	0	514
1	0	0	0	0	510
2	0	0	0	0	519
3	0	0	0	0	502
4	0	0	0	0	528
5	0	0	0	0	500
6	0	0	0	0	525
7	0	0	0	0	508
8	0	0	0	0	518
9	0	0	0	0	500
10	0	0	0	0	527
11	0	0	0	0	519
12	0	0	0	0	519
13	0	0	0	0	504
14	0	0	0	0	535
15	0	0	0	0	496
0	0	0	0	0	523
1	0	0	0	0	504
2	0	0	0	0	574
3	0	0	0	0	497
4	0	0	0	0	529
5	0	0	0	0	502
6	0	0	0	0	527
7	0	0	0	0	472
8	0	0	0	0	530
9	0	0	0	0	505
10	0	0	0	0	524
11	0	0	0	0	514
12	0	0	0	0	519
13	0	0	0	0	499
14	0	0	0	0	524
15	0	0	0	0	478
0	0	0	0	0	531
1	0	0	0	0	504
2	0	0	0	0	529
3	0	0	0	0	510
4	0	0	0	0	535
5	0	0	0	0	499
6	0	0	0	0	558
7	0	0	0	0	503
8	0	0	0	0	539
9	0	0	0	0	508
10	0	0	0	0	497
11	0	0	0	0	496
12	0	0	0	0	524
13	0	0	0	0	506
14	0	0	0	0	531
15	0	0	0	0	499
0	0	0	0	0	546
1	0	0	0	0	510
2	0	0	0	0	508
3	0	0	0	0	492
4	0	0	0	0	525
5	0	0	0	0	508
6	0	0	0	0	531
7	0	0	0	0	519
8	0	0	0	0	548
9	0	0	0	0	452
10	0	0	0	0	529
11	0	0	0	0	480
12	0	0	0	0	501
13	0	0	0	0	472
14	0	0	0	0	549
15	0	0	0	0	467
0	0	0	0	0	526
1	0	0	0	0	455
2	0	0	0	0	581
3	0	0	0	0	473
4	0	0	0	0	516
5	0	0	0	0	539
6	0	0	0	0	476
7	0	0	0	0	541
8	0	0	0	0	513
9	0	0	0	0	466
10	0	0	0	0	764
11	0	0	0	0	374
12	0	0	0	0	533
13	0	0	0	0	317
14	0	0	0	0	617
15	0	0	0	0	625
0	0	0	0	0	142
1	0	0	0	0	922
2	0	0	0	0	369
3	0	0	0	0	375
4	0	0	0	0	710
5	0	0	0	0	142
6	0	0	0	0	757
7	0	0	0	0	216
8	0	0	0	0	583
9	0	0	0	0	291
10	0	0	0	0	824
11	0	0	0	0	625
12	0	0	0	0	575
13	0	0	0	0	902
14	0	0	0	0	0
15	0	0	0	0	917
0	0	0	0	0	268
1	0	0	0	0	1019
2	0	0	0	0	334
3	0	0	0	0	65
4	0	0	0	0	1022
5	0	0	0	0	0
6	0	0	0	0	1022
7	0	0	0	0	0
8	0	0	0	0	1022
9	0	0	0	0	4
10	0	0	0	0	973
11	0	0	0	0	229
12	0	0	0	0	667
13	0	0	0	0	66
14	0	0	0	0	262
15	0	0	0	0	672
0	0	0	0	0	696
1	0	0	0	0	374
2	0	0	0	0	320
3	0	0	0	0	355
4	0	0	0	0	1022
5	0	0	0	0	188
6	0	0	0	0	1022
7	0	0	0	0	265
8	0	0	0	0	0
9	0	0	0	0	668
10	0	0	0	0	578
11	0	0	0	0	0
12	0	0	0	0	218
13	0	0	0	0	361
14	0	0	0	0	111
15	0	0	0	0	814
0	0	0	0	0	689
1	0	0	0	0	477
2	0	0	0	0	242
3	0	0	0	0	1006
4	0	0	0	0	1022
5	0	0	0	0	609
6	0	0	0	0	688
7	0	0	0	0	0
8	0	0	0	0	1022
9	0	0	0	0	598
10	0	0	0	0	0
11	0	0	0	0	281
12	0	0	0	0	353
13	0	0	0	0	668
14	0	0	0	0	662
15	0	0	0	0	347
0	0	0	0	0	358
1	0	0	0	0	355
2	0	0	0	0	1022
3	0	0	0	0	337
4	0	0	0	0	944
5	0	0	0	0	984
6	0	0	0	0	287
7	0	0	0	0	654
8	0	0	0	0	199
9	0	0	0	0	241
10	0	0	0	0	802
11	0	0	0	0	1022
12	0	0	0	0	131
13	0	0	0	0	43
14	0	0	0	0	662
15	0	0	0	0	528
0	0	0	0	0	421
1	0	0	0	0	67
2	0	0	0	0	692
3	0	0	0	0	0
4	0	0	0	0	824
5	0	0	0	0	646
6	0	0	0	0	440
7	0	0	0	0	1022
8	0	0	0	0	557
9	0	0	0	0	1022
10	0	0	0	0	704
11	0	0	0	0	552
12	0	0	0	0	908
13	0	0	0	0	1022
14	0	0	0	0	745
15	0	0	0	0	0
0	0	0	0	0	227
1	0	0	0	0	306
2	0	0	0	0	975
3	0	0	0	0	253
4	0	0	0	0	199
5	0	0	0	0	1022
6	0	0	0	0	712
7	0	0	0	0	599
8	0	0	0	0	417
9	0	0	0	0	937
10	0	0	0	0	149
11	0	0	0	0	671
12	0	0	0	0	481
13	0	0	0	0	647
14	0	0	0	0	610
15	0	0	0	0	484
0	0	0	0	0	525
1	0	0	0	0	512
2	0	0	0	0	659
3	0	0	0	0	510
4	0	0	0	0	584
5	0	0	0	0	470
6	0	0	0	0	497
7	0	0	0	0	539
8	0	0	0	0	534
9	0	0	0	0	499
10	0	0	0	0	539
11	0	0	0	0	524
12	0	0	0	0	468
13	0	0	0	0	507
14	0	0	0	0	573
15	0	0	0	0	487
0	0	0	0	0	524
1	0	0	0	0	503
2	0	0	0	0	521
3	0	0	0	0	686
4	0	0	0	0	526
5	0	0	0	0	498
6	0	0	0	0	499
7	0	0	0	0	516
8	0	0	0	0	518
9	0	0	0	0	536
10	0	0	0	0	543
11	0	0	0	0	471
12	0	0	0	0	497
13	0	0	0	0	504
14	0	0	0	0	511
15	0	0	0	0	496
0	0	0	0	0	534
1	0	0	0	0	492
2	0	0	0	0	566
3	0	0	0	0	487
4	0	0	0	0	520
5	0	0	0	0	510
6	0	0	0	0	511
7	0	0	0	0	489
8	0	0	0	0	514
9	0	0	0	0	573
10	0	0	0	0	504
11	0	0	0	0	483
12	0	0	0	0	455
13	0	0	0	0	508
14	0	0	0	0	534
15	0	0	0	0	498
0	0	0	0	0	506
1	0	0	0	0	581
2	0	0	0	0	534
3	0	0	0	0	471
4	0	0	0	0	500
5	0	0	0	0	475
6	0	0	0	0	513
7	0	0	0	0	511
8	0	0	0	0	532
9	0	0	0	0	439
10	0	0	0	0	642
11	0	0	0	0	464
12	0	0	0	0	496
13	0	0	0	0	481
14	0	0	0	0	505
15	0	0	0	0	513
0	0	0	0	0	551
1	0	0	0	0	520
2	0	0	0	0	460
3	0	0	0	0	576
4	0	0	0	0	496
5	0	0	0	0	471
6	0	0	0	0	503
7	0	0	0	0	507
8	0	0	0	0	520
9	0	0	0	0	511
10	0	0	0	0	528
11	0	0	0	0	460
12	0	0	0	0	559
13	0	0	0	0	482
14	0	0	0	0	507
15	0	0	0	0	497
0	0	0	0	0	526
1	0	0	0	0	507
2	0	0	0	0	514
3	0	0	0	0	506
4	0	0	0	0	567
5	0	0	0	0	501
6	0	0	0	0	498
7	0	0	0	0	492
8	0	0	0	0	522
9	0	0	0	0	511
10	0	0	0	0	499
11	0	0	0	0	505
12	0	0	0	0	521
13	0	0	0	0	498
14	0	0	0	0	546
15	0	0	0	0	529
0	0	0	0	0	507
1	0	0	0	0	482
2	0	0	0	0	531
3	0	0	0	0	494
4	0	0	0	0	529
5	0	0	0	0	502
6	0	0	0	0	512
7	0	0	0	0	499
8	0	0	0	0	503
9	0	0	0	0	515
10	0	0	0	0	532
11	0	0	0	0	501
12	0	0	0	0	523
13	0	0	0	0	497
14	0	0	0	0	502
15	0	0	0	0	494
0	0	0	0	0	511
1	0	0	0	0	524
2	0	0	0	0	565
3	0	0	0	0	514
4	0	0	0	0	489
5	0	0	0	0	511
6	0	0	0	0	513
7	0	0	0	0	546
8	0	0	0	0	526
9	0	0	0	0	508
10	0	0	0	0	518
11	0	0	0	0	500
12	0	0	0	0	512
13	0	0	0	0	489
14	0	0	0	0	500
15	0	0	0	0	488
0	0	0	0	0	544
1	0	0	0	0	518
2	0	0	0	0	485
3	0	0	0	0	510
4	0	0	0	0	517
5	0	0	0	0	467
6	0	0	0	0	521
7	0	0	0	0	519
8	0	0	0	0	504
9	0	0	0	0	508
10	0	0	0	0	518
11	0	0	0	0	475
12	0	0	0	0	516
13	0	0	0	0	500
14	0	0	0	0	501
15	0	0	0	0	530
0	0	0	0	0	506
1	0	0	0	0	517
2	0	0	0	0	512
3	0	0	0	0	496
4	0	0	0	0	518
5	0	0	0	0	515
6	0	0	0	0	481
7	0	0	0	0	551
8	0	0	0	0	519
9	0	0	0	0	499
10	0	0	0	0	501
11	0	0	0	0	492
12	0	0	0	0	541
13	0	0	0	0	501
14	0	0	0	0	527
15	0	0	0	0	499
0	0	0	0	0	523
1	0	0	0	0	499
2	0	0	0	0	509
3	0	0	0	0	498
4	0	0	0	0	536
5	0	0	0	0	508
6	0	0	0	0	519
7	0	0	0	0	505
8	0	0	0	0	506
9	0	0	0	0	559
10	0	0	0	0	517
11	0	0	0	0	512
12	0	0	0	0	510
13	0	0	0	0	510
14	0	0	0	0	518
15	0	0	0	0	516
0	0	0	0	0	512
1	0	0	0	0	520
2	0	0	0	0	521
3	0	0	0	0	530
4	0	0	0	0	513
5	0	0	0	0	475
6	0	0	0	0	522
7	0	0	0	0	491
8	0	0	0	0	521
9	0	0	0	0	517
10	0	0	0	0	516
11	0	0	0	0	497
12	0	0	0	0	588
13	0	0	0	0	465
14	0	0	0	0	496
15	0	0	0	0	510
0	0	0	0	0	513
1	0	0	0	0	509
2	0	0	0	0	513
3	0	0	0	0	496
4	0	0	0	0	487
5	0	0	0	0	562
6	0	0	0	0	491
7	0	0	0	0	494
8	0	0	0	0	534
9	0	0	0	0	529
10	0	0	0	0	504
11	0	0	0	0	512
12	0	0	0	0	304
13	0	0	0	0	644
14	0	0	0	0	492
15	0	0	0	0	412
0	0	0	0	0	424
1	0	0	0	0	496
2	0	0	0	0	493
3	0	0	0	0	530
4	0	0	0	0	472
5	0	0	0	0	696
6	0	0	0	0	291
7	0	0	0	0	597
8	0	0	0	0	663
9	0	0	0	0	442
10	0	0	0	0	459
11	0	0	0	0	595
12	0	0	0	0	184
13	0	0	0	0	805
14	0	0	0	0	553
15	0	0	0	0	358
0	0	0	0	0	845
1	0	0	0	0	132
2	0	0	0	0	799
3	0	0	0	0	731
4	0	0	0	0	0
5	0	0	0	0	1022
6	0	0	0	0	265
7	0	0	0	0	272
8	0	0	0	0	1022
9	0	0	0	0	0
10	0	0	0	0	1022
11	0	0	0	0	133
12	0	0	0	0	633
13	0	0	0	0	683
14	0	0	0	0	158
15	0	0	0	0	1022
0	0	0	0	0	0
1	0	0	0	0	1022
2	0	0	0	0	2
3	0	0	0	0	824
4	0	0	0	0	691
5	0	0	0	0	1022
6	0	0	0	0	0
7	0	0	0	0	1022
8	0	0	0	0	317
9	0	0	0	0	0
10	0	0	0	0	1022
11	0	0	0	0	0
12	0	0	0	0	1022
13	0	0	0	0	100
14	0	0	0	0	435
15	0	0	0	0	102
0	0	0	0	0	119
1	0	0	0	0	831
2	0	0	0	0	327
3	0	0	0	0	1022
4	0	0	0	0	305
5	0	0	0	0	0
6	0	0	0	0	1022
7	0	0	0	0	515
8	0	0	0	0	695
9	0	0	0	0	797
10	0	0	0	0	559
11	0	0	0	0	199
12	0	0	0	0	176
13	0	0	0	0	757
14	0	0	0	0	1022
15	0	0	0	0	91
0	0	0	0	0	1022
1	0	0	0	0	644
2	0	0	0	0	1022
3	0	0	0	0	118
4	0	0	0	0	232
5	0	0	0	0	475
6	0	0	0	0	234
7	0	0	0	0	65
8	0	0	0	0	0
9	0	0	0	0	825
10	0	0	0	0	427
11	0	0	0	0	0
12	0	0	0	0	218
13	0	0	0	0	1022
14	0	0	0	0	104
15	0	0	0	0	0
0	0	0	0	0	915
1	0	0	0	0	368
2	0	0	0	0	205
3	0	0	0	0	877
4	0	0	0	0	309
5	0	0	0	0	257
6	0	0	0	0	465
7	0	0	0	0	514
8	0	0	0	0	835
9	0	0	0	0	731
10	0	0	0	0	3
11	0	0	0	0	479
12	0	0	0	0	353
13	0	0	0	0	384
14	0	0	0	0	84
15	0	0	0	0	1022
0	0	0	0	0	205
1	0	0	0	0	556
2	0	0	0	0	396
3	0	0	0	0	714
4	0	0	0	0	455
5	0	0	0	0	481
6	0	0	0	0	423
7	0	0	0	0	451
8	0	0	0	0	609
9	0	0	0	0	348
10	0	0	0	0	606
11	0	0	0	0	481
12	0	0	0	0	707
13	0	0	0	0	435
14	0	0	0	0	495
15	0	0	0	0	569
0	0	0	0	0	688
1	0	0	0	0	361
2	0	0	0	0	550
3	0	0	0	0	485
4	0	0	0	0	539
5	0	0	0	0	534
6	0	0	0	0	542
7	0	0	0	0	507
8	0	0	0	0	456
9	0	0	0	0	490
10	0	0	0	0	520
11	0	0	0	0	537
12	0	0	0	0	467
13	0	0	0	0	568
14	0	0	0	0	498
15	0	0	0	0	518
0	0	0	0	0	505
1	0	0	0	0	529
2	0	0	0	0	502
3	0	0	0	0	520
4	0	0	0	0	492
5	0	0	0	0	496
6	0	0	0	0	502
7	0	0	0	0	503
8	0	0	0	0	525
9	0	0	0	0	521
10	0	0	0	0	507
11	0	0	0	0	535
12	0	0	0	0	484
13	0	0	0	0	498
14	0	0	0	0	532
15	0	0	0	0	507
0	0	0	0	0	525
1	0	0	0	0	510
2	0	0	0	0	483
3	0	0	0	0	537
4	0	0	0	0	504
5	0	0	0	0	509
6	0	0	0	0	495
7	0	0	0	0	550
8	0	0	0	0	526
9	0	0	0	0	510
10	0	0	0	0	511
11	0	0	0	0	515
12	0	0	0	0	500
13	0	0	0	0	527
14	0	0	0	0	563
15	0	0	0	0	474
0	0	0	0	0	559
1	0	0	0	0	504
2	0	0	0	0	494
3	0	0	0	0	515
4	0	0	0	0	503
5	0	0	0	0	516
6	0	0	0	0	507
7	0	0	0	0	500
8	0	0	0	0	572
9	0	0	0	0	497
10	0	0	0	0	514
11	0	0	0	0	537
12	0	0	0	0	505
13	0	0	0	0	511
14	0	0	0	0	495
15	0	0	0	0	527
0	0	0	0	0	494
1	0	0	0	0	510
2	0	0	0	0	502
3	0	0	0	0	571
4	0	0	0	0	505
5	0	0	0	0	542
6	0	0	0	0	566
7	0	0	0	0	507
8	0	0	0	0	487
9	0	0	0	0	487
10	0	0	0	0	503
11	0	0	0	0	516
12	0	0	0	0	506
13	0	0	0	0	487
14	0	0	0	0	553
15	0	0	0	0	529
0	0	0	0	0	504
1	0	0	0	0	493
2	0	0	0	0	497
3	0	0	0	0	508
4	0	0	0	0	500
5	0	0	0	0	529
6	0	0	0	0	467
7	0	0	0	0	540
8	0	0	0	0	517
9	0	0	0	0	483
10	0	0	0	0	504
11	0	0	0	0	516
12	0	0	0	0	502
13	0	0	0	0	515
14	0	0	0	0	500
15	0	0	0	0	520
0	0	0	0	0	553
1	0	0	0	0	533
2	0	0	0	0	501
3	0	0	0	0	511
4	0	0	0	0	507
5	0	0	0	0	528
6	0	0	0	0	511
7	0	0	0	0	591
8	0	0	0	0	495
9	0	0	0	0	521
10	0	0	0	0	488
11	0	0	0	0	502
12	0	0	0	0	507
13	0	0	0	0	512
14	0	0	0	0	490
15	0	0	0	0	515
0	0	0	0	0	524
1	0	0	0	0	520
2	0	0	0	0	494
3	0	0	0	0	534
4	0	0	0	0	537
5	0	0	0	0	471
6	0	0	0	0	501
7	0	0	0	0	501
8	0	0	0	0	512
9	0	0	0	0	525
10	0	0	0	0	454
11	0	0	0	0	551
12	0	0	0	0	514
13	0	0	0	0	506
14	0	0	0	0	483
15	0	0	0	0	500
0	0	0	0	0	514
1	0	0	0	0	508
2	0	0	0	0	501
3	0	0	0	0	560
4	0	0	0	0	636
5	0	0	0	0	528
6	0	0	0	0	454
7	0	0	0	0	543
8	0	0	0	0	455
9	0	0	0	0	499
10	0	0	0	0	451
11	0	0	0	0	412
12	0	0	0	0	900
13	0	0	0	0	435
14	0	0	0	0	492
15	0	0	0	0	310
0	0	0	0	0	451
1	0	0	0	0	721
2	0	0	0	0	620
3	0	0	0	0	442
4	0	0	0	0	405
5	0	0	0	0	460
6	0	0	0	0	477
7	0	0	0	0	124
8	0	0	0	0	481
9	0	0	0	0	542
10	0	0	0	0	483
11	0	0	0	0	519
12	0	0	0	0	468
13	0	0	0	0	517
14	0	0	0	0	480
15	0	0	0	0	533
0	0	0	0	0	494
1	0	0	0	0	518
2	0	0	0	0	497
3	0	0	0	0	509
4	0	0	0	0	480
5	0	0	0	0	527
6	0	0	0	0	496
7	0	0	0	0	559
8	0	0	0	0	500
9	0	0	0	0	525
10	0	0	0	0	510
11	0	0	0	0	509
12	0	0	0	0	487
13	0	0	0	0	527
14	0	0	0	0	497
15	0	0	0	0	540
0	0	0	0	0	504
1	0	0	0	0	527
2	0	0	0	0	502
3	0	0	0	0	502
4	0	0	0	0	503
5	0	0	0	0	502
6	0	0	0	0	501
7	0	0	0	0	534
8	0	0	0	0	513
9	0	0	0	0	529
10	0	0	0	0	489
11	0	0	0	0	516
12	0	0	0	0	504
13	0	0	0	0	514
14	0	0	0	0	500
15	0	0	0	0	527
0	0	0	0	0	521
1	0	0	0	0	529
2	0	0	0	0	504
3	0	0	0	0	514
4	0	0	0	0	495
5	0	0	0	0	520
6	0	0	0	0	512
7	0	0	0	0	530
8	0	0	0	0	493
9	0	0	0	0	534
10	0	0	0	0	507
11	0	0	0	0	526
12	0	0	0	0	518
13	0	0	0	0	527
14	0	0	0	0	497
15	0	0	0	0	510
0	0	0	0	0	507
1	0	0	0	0	541
2	0	0	0	0	499
3	0	0	0	0	499
4	0	0	0	0	513
5	0	0	0	0	522
6	0	0	0	0	492
7	0	0	0	0	514
8	0	0	0	0	529
9	0	0	0	0	478
10	0	0	0	0	457
11	0	0	0	0	526
12	0	0	0	0	486
13	0	0	0	0	515
14	0	0	0	0	498
15	0	0	0	0	510
0	0	0	0	0	493
1	0	0	0	0	603
2	0	0	0	0	313
3	0	0	0	0	624
4	0	0	0	0	565
5	0	0	0	0	443
6	0	0	0	0	527
7	0	0	0	0	535
8	0	0	0	0	468
9	0	0	0	0	504
10	0	0	0	0	438
11	0	0	0	0	548
12	0	0	0	0	553
13	0	0	0	0	585
14	0	0	0	0	560
15	0	0	0	0	424
0	0	0	0	0	533
1	0	0	0	0	543
2	0	0	0	0	473
3	0	0	0	0	685
4	0	0	0	0	321
5	0	0	0	0	676
6	0	0	0	0	439
7	0	0	0	0	532
8	0	0	0	0	681
9	0	0	0	0	251
10	0	0	0	0	667
11	0	0	0	0	525
12	0	0	0	0	259
13	0	0	0	0	704
14	0	0	0	0	418
15	0	0	0	0	602
0	0	0	0	0	539
1	0	0	0	0	165
2	0	0	0	0	722
3	0	0	0	0	206
4	0	0	0	0	863
5	0	0	0	0	416
6	0	0	0	0	477
7	0	0	0	0	675
8	0	0	0	0	292
9	0	0	0	0	1022
10	0	0	0	0	0
11	0	0	0	0	1022
12	0	0	0	0	165
13	0	0	0	0	682
14	0	0	0	0	363
15	0	0	0	0	0
0	0	0	0	0	1022
1	0	0	0	0	270
2	0	0	0	0	1022
3	0	0	0	0	331
4	0	0	0	0	518
5	0	0	0	0	434
6	0	0	0	0	0
7	0	0	0	0	1022
8	0	0	0	0	344
9	0	0	0	0	943
10	0	0	0	0	373
11	0	0	0	0	192
12	0	0	0	0	297
13	0	0	0	0	34
14	0	0	0	0	684
15	0	0	0	0	674
0	0	0	0	0	0
1	0	0	0	0	1022
2	0	0	0	0	91
3	0	0	0	0	1022
4	0	0	0	0	406
5	0	0	0	0	0
6	0	0	0	0	1022
7	0	0	0	0	0
8	0	0	0	0	1022
9	0	0	0	0	548
10	0	0	0	0	1022
11	0	0	0	0	0
12	0	0	0	0	233
13	0	0	0	0	938
14	0	0	0	0	239
15	0	0	0	0	1022
0	0	0	0	0	0
1	0	0	0	0	561
2	0	0	0	0	927
3	0	0	0	0	0
4	0	0	0	0	707
5	0	0	0	0	536
6	0	0	0	0	0
7	0	0	0	0	233
8	0	0	0	0	92
9	0	0	0	0	0
10	0	0	0	0	384
11	0	0	0	0	262
12	0	0	0	0	333
13	0	0	0	0	184
14	0	0	0	0	467
15	0	0	0	0	95
0	0	0	0	0	0
1	0	0	0	0	516
2	0	0	0	0	744
3	0	0	0	0	578
4	0	0	0	0	41
5	0	0	0	0	707
6	0	0	0	0	277
7	0	0	0	0	817
8	0	0	0	0	0
9	0	0	0	0	1022
10	0	0	0	0	224
11	0	0	0	0	666
12	0	0	0	0	518
13	0	0	0	0	272
14	0	0	0	0	46
15	0	0	0	0	1022
0	0	0	0	0	129
1	0	0	0	0	0
2	0	0	0	0	658
3	0	0	0	0	295
4	0	0	0	0	472
5	0	0	0	0	436
6	0	0	0	0	399
7	0	0	0	0	1022
8	0	0	0	0	357
9	0	0	0	0	432
10	0	0	0	0	438
11	0	0	0	0	819
12	0	0	0	0	332
13	0	0	0	0	488
14	0	0	0	0	474
15	0	0	0	0	456
0	0	0	0	0	586
1	0	0	0	0	402
2	0	0	0	0	508
3	0	0	0	0	540
4	0	0	0	0	468
5	0	0	0	0	462
6	0	0	0	0	575
7	0	0	0	0	437
8	0	0	0	0	481
9	0	0	0	0	464
10	0	0	0	0	561
11	0	0	0	0	527
12	0	0	0	0	537
13	0	0	0	0	477
14	0	0	0	0	620
15	0	0	0	0	553
0	0	0	0	0	451
1	0	0	0	0	466
2	0	0	0	0	526
3	0	0	0	0	495
4	0	0	0	0	518
5	0	0	0	0	532
6	0	0	0	0	569
7	0	0	0	0	466
8	0	0	0	0	486
9	0	0	0	0	500
10	0	0	0	0	510
11	0	0	0	0	523
12	0	0	0	0	475
13	0	0	0	0	538
14	0	0	0	0	519
15	0	0	0	0	489
0	0	0	0	0	481
1	0	0	0	0	510
2	0	0	0	0	506
3	0	0	0	0	525
4	0	0	0	0	543
5	0	0	0	0	504
6	0	0	0	0	529
7	0	0	0	0	495
8	0	0	0	0	532
9	0	0	0	0	507
10	0	0	0	0	501
11	0	0	0	0	543
12	0	0	0	0	502
13	0	0	0	0	498
14	0	0	0	0	523
15	0	0	0	0	496
0	0	0	0	0	497
1	0	0	0	0	527
2	0	0	0	0	488
3	0	0	0	0	510
4	0	0	0	0	516
5	0	0	0	0	513
6	0	0	0	0	518
7	0	0	0	0	519
8	0	0	0	0	518
9	0	0	0	0	523
10	0	0	0	0	534
11	0	0	0	0	501
12	0	0	0	0	504
13	0	0	0	0	511
14	0	0	0	0	513
15	0	0	0	0	524
0	0	0	0	0	506
1	0	0	0	0	517
2	0	0	0	0	502
3	0	0	0	0	510
4	0	0	0	0	520
5	0	0	0	0	556
6	0	0	0	0	496
7	0	0	0	0	526
8	0	0	0	0	510
9	0	0	0	0	521
10	0	0	0	0	503
11	0	0	0	0	523
12	0	0	0	0	505
13	0	0	0	0	468
14	0	0	0	0	589
15	0	0	0	0	474
0	0	0	0	0	490
1	0	0	0	0	519
2	0	0	0	0	504
3	0	0	0	0	511
4	0	0	0	0	507
5	0	0	0	0	506
6	0	0	0	0	506
7	0	0	0	0	533
8	0	0	0	0	475
9	0	0	0	0	511
10	0	0	0	0	512
11	0	0	0	0	524
12	0	0	0	0	508
13	0	0	0	0	485
14	0	0	0	0	546
15	0	0	0	0	504
0	0	0	0	0	468
1	0	0	0	0	542
2	0	0	0	0	499
3	0	0	0	0	524
4	0	0	0	0	507
5	0	0	0	0	516
6	0	0	0	0	502
7	0	0	0	0	535
8	0	0	0	0	493
9	0	0	0	0	530
10	0	0	0	0	492
11	0	0	0	0	557
12	0	0	0	0	491
13	0	0	0	0	543
14	0	0	0	0	529
15	0	0	0	0	518
0	0	0	0	0	484
1	0	0	0	0	519
2	0	0	0	0	496
3	0	0	0	0	535
4	0	0	0	0	496
5	0	0	0	0	536
6	0	0	0	0	501
7	0	0	0	0	512
8	0	0	0	0	508
9	0	0	0	0	511
10	0	0	0	0	499
11	0	0	0	0	526
12	0	0	0	0	498
13	0	0	0	0	517
14	0	0	0	0	519
15	0	0	0	0	526
0	0	0	0	0	490
1	0	0	0	0	495
2	0	0	0	0	524
3	0	0	0	0	534
4	0	0	0	0	486
5	0	0	0	0	504
6	0	0	0	0	515
7	0	0	0	0	496
8	0	0	0	0	515
9	0	0	0	0	512
10	0	0	0	0	504
11	0	0	0	0	516
12	0	0	0	0	523
13	0	0	0	0	519
14	0	0	0	0	497
15	0	0	0	0	520
0	0	0	0	0	512
1	0	0	0	0	537
2	0	0	0	0	503
3	0	0	0	0	537
4	0	0	0	0	472
5	0	0	0	0	609
6	0	0	0	0	517
7	0	0	0	0	515
8	0	0	0	0	536
9	0	0	0	0	547
10	0	0	0	0	477
11	0	0	0	0	516
12	0	0	0	0	491
13	0	0	0	0	517
14	0	0	0	0	499
15	0	0	0	0	528
0	0	0	0	0	504
1	0	0	0	0	529
2	0	0	0	0	504
3	0	0	0	0	515
4	0	0	0	0	492
5	0	0	0	0	527
6	0	0	0	0	503
7	0	0	0	0	526
8	0	0	0	0	516
9	0	0	0	0	529
10	0	0	0	0	491
11	0	0	0	0	525
12	0	0	0	0	494
13	0	0	0	0	530
14	0	0	0	0	511
15	0	0	0	0	518
0	0	0	0	0	504
1	0	0	0	0	513
2	0	0	0	0	503
3	0	0	0	0	525
4	0	0	0	0	536
5	0	0	0	0	524
6	0	0	0	0	507
7	0	0	0	0	528
8	0	0	0	0	496
9	0	0	0	0	525
10	0	0	0	0	516
11	0	0	0	0	536
12	0	0	0	0	502
13	0	0	0	0	513
14	0	0	0	0	531
15	0	0	0	0	513
0	0	0	0	0	491
1	0	0	0	0	531
2	0	0	0	0	497
3	0	0	0	0	516
4	0	0	0	0	502
5	0	0	0	0	525
6	0	0	0	0	492
7	0	0	0	0	531
8	0	0	0	0	499
9	0	0	0	0	515
10	0	0	0	0	492
11	0	0	0	0	532
12	0	0	0	0	497
13	0	0	0	0	504
14	0	0	0	0	510
15	0	0	0	0	512
0	0	0	0	0	480
1	0	0	0	0	517
2	0	0	0	0	533
3	0	0	0	0	508
4	0	0	0	0	518
5	0	0	0	0	527
6	0	0	0	0	491
7	0	0	0	0	505
8	0	0	0	0	507
9	0	0	0	0	521
10	0	0	0	0	520
11	0	0	0	0	532
12	0	0	0	0	492
13	0	0	0	0	508
14	0	0	0	0	496
15	0	0	0	0	519
0	0	0	0	0	500
1	0	0	0	0	514
2	0	0	0	0	499
3	0	0	0	0	518
4	0	0	0	0	495
5	0	0	0	0	510
6	0	0	0	0	492
7	0	0	0	0	516
8	0	0	0	0	512
9	0	0	0	0	519
10	0	0	0	0	537
11	0	0	0	0	532
12	0	0	0	0	508
13	0	0	0	0	529
14	0	0	0	0	514
15	0	0	0	0	512
0	0	0	0	0	505
1	0	0	0	0	524
2	0	0	0	0	497
3	0	0	0	0	504
4	0	0	0	0	545
5	0	0	0	0	524
6	0	0	0	0	510
7	0	0	0	0	512
8	0	0	0	0	499
9	0	0	0	0	478
10	0	0	0	0	542
11	0	0	0	0	520
12	0	0	0	0	501
13	0	0	0	0	486
14	0	0	0	0	481
15	0	0	0	0	477
0	0	0	0	0	543
1	0	0	0	0	527
2	0	0	0	0	598
3	0	0	0	0	488
4	0	0	0	0	511
5	0	0	0	0	529
6	0	0	0	0	526
7	0	0	0	0	508
8	0	0	0	0	491
9	0	0	0	0	501
10	0	0	0	0	505
11	0	0	0	0	604
12	0	0	0	0	515
13	0	0	0	0	535
14	0	0	0	0	536
15	0	0	0	0	555
0	0	0	0	0	471
1	0	0	0	0	543
2	0	0	0	0	497
3	0	0	0	0	519
4	0	0	0	0	508
5	0	0	0	0	483
6	0	0	0	0	428
7	0	0	0	0	486
8	0	0	0	0	525
9	0	0	0	0	512
10	0	0	0	0	506
11	0	0	0	0	527
12	0	0	0	0	465
13	0	0	0	0	486
14	0	0	0	0	524
15	0	0	0	0	512
0	0	0	0	0	492
1	0	0	0	0	550
2	0	0	0	0	516
3	0	0	0	0	480
4	0	0	0	0	495
5	0	0	0	0	507
6	0	0	0	0	431
7	0	0	0	0	551
8	0	0	0	0	488
9	0	0	0	0	482
10	0	0	0	0	623
11	0	0	0	0	498
12	0	0	0	0	465
13	0	0	0	0	511
14	0	0	0	0	476
15	0	0	0	0	565
0	0	0	0	0	466
1	0	0	0	0	614
2	0	0	0	0	583
3	0	0	0	0	413
4	0	0	0	0	461
5	0	0	0	0	588
6	0	0	0	0	359
7	0	0	0	0	640
8	0	0	0	0	567
9	0	0	0	0	543
10	0	0	0	0	383
11	0	0	0	0	579
12	0	0	0	0	606
13	0	0	0	0	915
14	0	0	0	0	0
15	0	0	0	0	615
0	0	0	0	0	549
1	0	0	0	0	0
2	0	0	0	0	1022
3	0	0	0	0	0
4	0	0	0	0	246
5	0	0	0	0	839
6	0	0	0	0	348
7	0	0	0	0	963
8	0	0	0	0	363
9	0	0	0	0	94
10	0	0	0	0	1022
11	0	0	0	0	0
12	0	0	0	0	955
13	0	0	0	0	0
14	0	0	0	0	1022
15	0	0	0	0	122
0	0	0	0	0	1022
1	0	0	0	0	163
2	0	0	0	0	713
3	0	0	0	0	857
4	0	0	0	0	181
5	0	0	0	0	623
6	0	0	0	0	512
7	0	0	0	0	359
8	0	0	0	0	620
9	0	0	0	0	738
10	0	0	0	0	66
11	0	0	0	0	1022
12	0	0	0	0	0
13	0	0	0	0	0
14	0	0	0	0	368
15	0	0	0	0	803
0	0	0	0	0	1022
1	0	0	0	0	494
2	0	0	0	0	658
3	0	0	0	0	489
4	0	0	0	0	371
5	0	0	0	0	1022
6	0	0	0	0	1022
7	0	0	0	0	0
8	0	0	0	0	317
9	0	0	0	0	1014
10	0	0	0	0	243
11	0	0	0	0	1022
12	0	0	0	0	715
13	0	0	0	0	0
14	0	0	0	0	504
15	0	0	0	0	579
0	0	0	0	0	276
1	0	0	0	0	664
2	0	0	0	0	275
3	0	0	0	0	509
4	0	0	0	0	1022
5	0	0	0	0	487
6	0	0	0	0	319
7	0	0	0	0	363
8	0	0	0	0	1022
9	0	0	0	0	562
10	0	0	0	0	741
11	0	0	0	0	0
12	0	0	0	0	645
13	0	0	0	0	0
14	0	0	0	0	812
15	0	0	0	0	875
0	0	0	0	0	495
1	0	0	0	0	732
2	0	0	0	0	599
3	0	0	0	0	55
4	0	0	0	0	664
5	0	0	0	0	563
6	0	0	0	0	518
7	0	0	0	0	0
8	0	0	0	0	1022
9	0	0	0	0	620
10	0	0	0	0	502
11	0	0	0	0	15
12	0	0	0	0	638
13	0	0	0	0	87
14	0	0	0	0	0
15	0	0	0	0	383
0	0	0	0	0	375
1	0	0	0	0	259
2	0	0	0	0	432
3	0	0	0	0	324
4	0	0	0	0	693
5	0	0	0	0	1022
6	0	0	0	0	589
7	0	0	0	0	278
8	0	0	0	0	832
9	0	0	0	0	341
10	0	0	0	0	487
11	0	0	0	0	421
12	0	0	0	0	352
13	0	0	0	0	357
14	0	0	0	0	530
15	0	0	0	0	599
0	0	0	0	0	778
1	0	0	0	0	475
2	0	0	0	0	471
3	0	0	0	0	499
4	0	0	0	0	597
5	0	0	0	0	587
6	0	0	0	0	471
7	0	0	0	0	543
8	0	0	0	0	474
9	0	0	0	0	448
10	0	0	0	0	504
11	0	0	0	0	506
12	0	0	0	0	557
13	0	0	0	0	535
14	0	0	0	0	464
15	0	0	0	0	520
0	0	0	0	0	517
1	0	0	0	0	531
2	0	0	0	0	506
3	0	0	0	0	516
4	0	0	0	0	496
5	0	0	0	0	509
6	0	0	0	0	540
7	0	0	0	0	511
8	0	0	0	0	499
9	0	0	0	0	512
10	0	0	0	0	516
11	0	0	0	0	500
12	0	0	0	0	503
13	0	0	0	0	499
14	0	0	0	0	512
15	0	0	0	0	510
0	0	0	0	0	519
1	0	0	0	0	502
2	0	0	0	0	512
3	0	0	0	0	574
4	0	0	0	0	504
5	0	0	0	0	487
6	0	0	0	0	547
7	0	0	0	0	499
8	0	0	0	0	449
9	0	0	0	0	523
10	0	0	0	0	538
11	0	0	0	0	537
12	0	0	0	0	541
13	0	0	0	0	492
14	0	0	0	0	502
15	0	0	0	0	499
0	0	0	0	0	499
1	0	0	0	0	568
2	0	0	0	0	610
3	0	0	0	0	523
4	0	0	0	0	479
5	0	0	0	0	483
6	0	0	0	0	524
7	0	0	0	0	497
8	0	0	0	0	516
9	0	0	0	0	508
10	0	0	0	0	510
11	0	0	0	0	481
12	0	0	0	0	585
13	0	0	0	0	495
14	0	0	0	0	513
15	0	0	0	0	495
0	0	0	0	0	516
1	0	0	0	0	521
2	0	0	0	0	519
3	0	0	0	0	497
4	0	0	0	0	522
5	0	0	0	0	473
6	0	0	0	0	475
7	0	0	0	0	575
8	0	0	0	0	505
9	0	0	0	0	483
10	0	0	0	0	515
11	0	0	0	0	573
12	0	0	0	0	514
13	0	0	0	0	507
14	0	0	0	0	545
15	0	0	0	0	522
0	0	0	0	0	507
1	0	0	0	0	531
2	0	0	0	0	522
3	0	0	0	0	440
4	0	0	0	0	533
5	0	0	0	0	585
6	0	0	0	0	507
7	0	0	0	0	507
8	0	0	0	0	481
9	0	0	0	0	464
10	0	0	0	0	523
11	0	0	0	0	514
12	0	0	0	0	517
13	0	0	0	0	504
14	0	0	0	0	518
15	0	0	0	0	509
0	0	0	0	0	526
1	0	0	0	0	529
2	0	0	0	0	537
3	0	0	0	0	508
4	0	0	0	0	499
5	0	0	0	0	499
6	0	0	0	0	510
7	0	0	0	0	524
8	0	0	0	0	519
9	0	0	0	0	507
10	0	0	0	0	499
11	0	0	0	0	532
12	0	0	0	0	512
13	0	0	0	0	505
14	0	0	0	0	514
15	0	0	0	0	515
0	0	0	0	0	534
1	0	0	0	0	537
2	0	0	0	0	494
3	0	0	0	0	512
4	0	0	0	0	510
5	0	0	0	0	529
6	0	0	0	0	555
7	0	0	0	0	486
8	0	0	0	0	488
9	0	0	0	0	506
10	0	0	0	0	512
11	0	0	0	0	494
12	0	0	0	0	606
13	0	0	0	0	516
14	0	0	0	0	467
15	0	0	0	0	495
0	0	0	0	0	505
1	0	0	0	0	474
2	0	0	0	0	520
3	0	0	0	0	488
4	0	0	0	0	534
5	0	0	0	0	508
6	0	0	0	0	515
7	0	0	0	0	490
8	0	0	0	0	509
9	0	0	0	0	492
10	0	0	0	0	496
11	0	0	0	0	518
12	0	0	0	0	532
13	0	0	0	0	514
14	0	0	0	0	478
15	0	0	0	0	545
0	0	0	0	0	479
1	0	0	0	0	455
2	0	0	0	0	512
3	0	0	0	0	504
4	0	0	0	0	521
5	0	0	0	0	504
6	0	0	0	0	508
7	0	0	0	0	519
8	0	0	0	0	576
9	0	0	0	0	427
10	0	0	0	0	519
11	0	0	0	0	518
12	0	0	0	0	492
13	0	0	0	0	493
14	0	0	0	0	536
15	0	0	0	0	480
0	0	0	0	0	512
1	0	0	0	0	492
2	0	0	0	0	524
3	0	0	0	0	531
4	0	0	0	0	471
5	0	0	0	0	493
6	0	0	0	0	534
7	0	0	0	0	489
8	0	0	0	0	559
9	0	0	0	0	525
10	0	0	0	0	532
11	0	0	0	0	504
12	0	0	0	0	534
13	0	0	0	0	505
14	0	0	0	0	501
15	0	0	0	0	561
0	0	0	0	0	531
1	0	0	0	0	486
2	0	0	0	0	538
3	0	0	0	0	459
4	0	0	0	0	515
5	0	0	0	0	505
6	0	0	0	0	599
7	0	0	0	0	494
8	0	0	0	0	517
9	0	0	0	0	501
10	0	0	0	0	537
11	0	0	0	0	548
12	0	0	0	0	575
13	0	0	0	0	495
14	0	0	0	0	494
15	0	0	0	0	535
0	0	0	0	0	553
1	0	0	0	0	495
2	0	0	0	0	562
3	0	0	0	0	487
4	0	0	0	0	497
5	0	0	0	0	531
6	0	0	0	0	507
7	0	0	0	0	491
8	0	0	0	0	548
9	0	0	0	0	500
10	0	0	0	0	534
11	0	0	0	0	496
12	0	0	0	0	469
13	0	0	0	0	467
14	0	0	0	0	489
15	0	0	0	0	472
0	0	0	0	0	468
1	0	0	0	0	547
2	0	0	0	0	531
3	0	0	0	0	539
4	0	0	0	0	568
5	0	0	0	0	431
6	0	0	0	0	557
7	0	0	0	0	492
8	0	0	0	0	492
9	0	0	0	0	557
10	0	0	0	0	543
11	0	0	0	0	468
12	0	0	0	0	589
13	0	0	0	0	448
14	0	0	0	0	543
15	0	0	0	0	513
0	0	0	0	0	492
1	0	0	0	0	451
2	0	0	0	0	582
3	0	0	0	0	527
4	0	0	0	0	435
5	0	0	0	0	451
6	0	0	0	0	675
7	0	0	0	0	416
8	0	0	0	0	428
9	0	0	0	0	538
10	0	0	0	0	516
11	0	0	0	0	483
12	0	0	0	0	532
13	0	0	0	0	409
14	0	0	0	0	600
15	0	0	0	0	580
0	0	0	0	0	292
1	0	0	0	0	614
2	0	0	0	0	565
3	0	0	0	0	576
4	0	0	0	0	445
5	0	0	0	0	311
6	0	0	0	0	809
7	0	0	0	0	417
8	0	0	0	0	817
9	0	0	0	0	170
10	0	0	0	0	1022
11	0	0	0	0	0
12	0	0	0	0	1022
13	0	0	0	0	510
14	0	0	0	0	885
15	0	0	0	0	421
0	0	0	0	0	951
1	0	0	0	0	583
2	0	0	0	0	0
3	0	0	0	0	930
4	0	0	0	0	0
5	0	0	0	0	995
6	0	0	0	0	0
7	0	0	0	0	1022
8	0	0	0	0	0
9	0	0	0	0	140
10	0	0	0	0	856
11	0	0	0	0	496
12	0	0	0	0	247
13	0	0	0	0	555
14	0	0	0	0	328
15	0	0	0	0	990
0	0	0	0	0	0
1	0	0	0	0	331
2	0	0	0	0	558
3	0	0	0	0	828
4	0	0	0	0	427
5	0	0	0	0	1022
6	0	0	0	0	51
7	0	0	0	0	173
8	0	0	0	0	1022
9	0	0	0	0	847
10	0	0	0	0	441
11	0	0	0	0	0
12	0	0	0	0	60
13	0	0	0	0	0
14	0	0	0	0	332
15	0	0	0	0	345
0	0	0	0	0	496
1	0	0	0	0	123
2	0	0	0	0	220
3	0	0	0	0	196
4	0	0	0	0	736
5	0	0	0	0	711
6	0	0	0	0	0
7	0	0	0	0	509
8	0	0	0	0	908
9	0	0	0	0	0
10	0	0	0	0	0
11	0	0	0	0	0
12	0	0	0	0	965
13	0	0	0	0	275
14	0	0	0	0	1022
15	0	0	0	0	407
0	0	0	0	0	157
1	0	0	0	0	715
2	0	0	0	0	454
3	0	0	0	0	580
4	0	0	0	0	452
5	0	0	0	0	1022
6	0	0	0	0	380
7	0	0	0	0	176
8	0	0	0	0	1022
9	0	0	0	0	580
10	0	0	0	0	539
11	0	0	0	0	397
12	0	0	0	0	435
13	0	0	0	0	592
14	0	0	0	0	620
15	0	0	0	0	433
0	0	0	0	0	489
1	0	0	0	0	295
2	0	0	0	0	541
3	0	0	0	0	556
4	0	0	0	0	425
5	0	0	0	0	422
6	0	0	0	0	607
7	0	0	0	0	551
8	0	0	0	0	467
9	0	0	0	0	502
10	0	0	0	0	574
11	0	0	0	0	582
12	0	0	0	0	476
13	0	0	0	0	502
14	0	0	0	0	519
15	0	0	0	0	503
0	0	0	0	0	542
1	0	0	0	0	504
2	0	0	0	0	575
3	0	0	0	0	476
4	0	0	0	0	509
5	0	0	0	0	498
6	0	0	0	0	578
7	0	0	0	0	468
8	0	0	0	0	531
9	0	0	0	0	531
10	0	0	0	0	496
11	0	0	0	0	513
12	0	0	0	0	491
13	0	0	0	0	487
14	0	0	0	0	519
15	0	0	0	0	540
0	0	0	0	0	516
1	0	0	0	0	494
2	0	0	0	0	500
3	0	0	0	0	449
4	0	0	0	0	595
5	0	0	0	0	483
6	0	0	0	0	521
7	0	0	0	0	496
8	0	0	0	0	547
9	0	0	0	0	494
10	0	0	0	0	515
11	0	0	0	0	511
12	0	0	0	0	525
13	0	0	0	0	508
14	0	0	0	0	574
15	0	0	0	0	485
0	0	0	0	0	496
1	0	0	0	0	516
2	0	0	0	0	519
3	0	0	0	0	505
4	0	0	0	0	537
5	0	0	0	0	492
6	0	0	0	0	520
7	0	0	0	0	483
8	0	0	0	0	510
9	0	0	0	0	544
10	0	0	0	0	516
11	0	0	0	0	485
12	0	0	0	0	518
13	0	0	0	0	502
14	0	0	0	0	529
15	0	0	0	0	481
0	0	0	0	0	510
1	0	0	0	0	535
2	0	0	0	0	537
3	0	0	0	0	534
4	0	0	0	0	541
5	0	0	0	0	457
6	0	0	0	0	476
7	0	0	0	0	488
8	0	0	0	0	561
9	0	0	0	0	462
10	0	0	0	0	585
11	0	0	0	0	460
12	0	0	0	0	542
13	0	0	0	0	505
14	0	0	0	0	523
15	0	0	0	0	499
0	0	0	0	0	553
1	0	0	0	0	494
2	0	0	0	0	555
3	0	0	0	0	492
4	0	0	0	0	487
5	0	0	0	0	534
6	0	0	0	0	536
7	0	0	0	0	470
8	0	0	0	0	528
9	0	0	0	0	481
10	0	0	0	0	535
11	0	0	0	0	509
12	0	0	0	0	535
13	0	0	0	0	504
14	0	0	0	0	509
15	0	0	0	0	499
0	0	0	0	0	558
1	0	0	0	0	484
2	0	0	0	0	527
3	0	0	0	0	489
4	0	0	0	0	525
5	0	0	0	0	499
6	0	0	0	0	536
7	0	0	0	0	487
8	0	0	0	0	527
9	0	0	0	0	481
10	0	0	0	0	545
11	0	0	0	0	502
12	0	0	0	0	561
13	0	0	0	0	486
14	0	0	0	0	534
15	0	0	0	0	505
0	0	0	0	0	526
1	0	0	0	0	504
2	0	0	0	0	525
3	0	0	0	0	474
4	0	0	0	0	515
5	0	0	0	0	519
6	0	0	0	0	523
7	0	0	0	0	491
8	0	0	0	0	513
9	0	0	0	0	509
10	0	0	0	0	531
11	0	0	0	0	505
12	0	0	0	0	519
13	0	0	0	0	513
14	0	0	0	0	537
15	0	0	0	0	499
0	0	0	0	0	527
1	0	0	0	0	486
2	0	0	0	0	531
3	0	0	0	0	495
4	0	0	0	0	523
5	0	0	0	0	490
6	0	0	0	0	508
7	0	0	0	0	607
8	0	0	0	0	508
9	0	0	0	0	493
10	0	0	0	0	506
11	0	0	0	0	511
12	0	0	0	0	534
13	0	0	0	0	476
14	0	0	0	0	517
15	0	0	0	0	518
0	0	0	0	0	540
1	0	0	0	0	488
2	0	0	0	0	559
3	0	0	0	0	489
4	0	0	0	0	540
5	0	0	0	0	530
6	0	0	0	0	550
7	0	0	0	0	457
8	0	0	0	0	553
9	0	0	0	0	544
10	0	0	0	0	492
11	0	0	0	0	492
12	0	0	0	0	479
13	0	0	0	0	524
14	0	0	0	0	531
15	0	0	0	0	499
0	0	0	0	0	501
1	0	0	0	0	524
2	0	0	0	0	512
3	0	0	0	0	466
4	0	0	0	0	514
5	0	0	0	0	457
6	0	0	0	0	554
7	0	0	0	0	508
8	0	0	0	0	521
9	0	0	0	0	540
10	0	0	0	0	512
11	0	0	0	0	558
12	0	0	0	0	520
13	0	0	0	0	574
14	0	0	0	0	504
15	0	0	0	0	673
0	0	0	0	0	493
1	0	0	0	0	510
2	0	0	0	0	546
3	0	0	0	0	481
4	0	0	0	0	325
5	0	0	0	0	490
6	0	0	0	0	534
7	0	0	0	0	493
8	0	0	0	0	515
9	0	0	0	0	532
10	0	0	0	0	427
11	0	0	0	0	500
12	0	0	0	0	503
13	0	0	0	0	431
14	0	0	0	0	543
15	0	0	0	0	491
0	0	0	0	0	458
1	0	0	0	0	488
2	0	0	0	0	499
3	0	0	0	0	487
4	0	0	0	0	495
5	0	0	0	0	486
6	0	0	0	0	503
7	0	0	0	0	530
8	0	0	0	0	513
9	0	0	0	0	506
10	0	0	0	0	573
11	0	0	0	0	499
12	0	0	0	0	524
13	0	0	0	0	499
14	0	0	0	0	500
15	0	0	0	0	543
0	0	0	0	0	513
1	0	0	0	0	511
2	0	0	0	0	539
3	0	0	0	0	518
4	0	0	0	0	514
5	0	0	0	0	638
6	0	0	0	0	505
7	0	0	0	0	531
8	0	0	0	0	452
9	0	0	0	0	527
10	0	0	0	0	511
11	0	0	0	0	511
12	0	0	0	0	487
13	0	0	0	0	538
14	0	0	0	0	534
15	0	0	0	0	505
0	0	0	0	0	532
1	0	0	0	0	520
2	0	0	0	0	545
3	0	0	0	0	491
4	0	0	0	0	665
5	0	0	0	0	420
6	0	0	0	0	588
7	0	0	0	0	495
8	0	0	0	0	551
9	0	0	0	0	473
10	0	0	0	0	517
11	0	0	0	0	476
12	0	0	0	0	586
13	0	0	0	0	461
14	0	0	0	0	505
15	0	0	0	0	684
0	0	0	0	0	501
1	0	0	0	0	427
2	0	0	0	0	472
3	0	0	0	0	430
4	0	0	0	0	565
5	0	0	0	0	519
6	0	0	0	0	454
7	0	0	0	0	519
8	0	0	0	0	520
9	0	0	0	0	606
10	0	0	0	0	684
11	0	0	0	0	480
12	0	0	0	0	533
13	0	0	0	0	579
14	0	0	0	0	481
15	0	0	0	0	543
0	0	0	0	0	465
1	0	0	0	0	503
2	0	0	0	0	519
3	0	0	0	0	477
4	0	0	0	0	636
5	0	0	0	0	441
6	0	0	0	0	564
7	0	0	0	0	476
8	0	0	0	0	488
9	0	0	0	0	602
10	0	0	0	0	503
11	0	0	0	0	521
12	0	0	0	0	739
13	0	0	0	0	356
14	0	0	0	0	519
15	0	0	0	0	526
0	0	0	0	0	599
1	0	0	0	0	554
2	0	0	0	0	288
3	0	0	0	0	620
4	0	0	0	0	747
5	0	0	0	0	548
6	0	0	0	0	562
7	0	0	0	0	207
8	0	0	0	0	714
9	0	0	0	0	448
10	0	0	0	0	587
11	0	0	0	0	584
12	0	0	0	0	0
13	0	0	0	0	937
14	0	0	0	0	426
15	0	0	0	0	403
0	0	0	0	0	565
1	0	0	0	0	265
2	0	0	0	0	1004
3	0	0	0	0	0
4	0	0	0	0	1022
5	0	0	0	0	0
6	0	0	0	0	1022
7	0	0	0	0	0
8	0	0	0	0	1022
9	0	0	0	0	422
10	0	0	0	0	0
11	0	0	0	0	800
12	0	0	0	0	0
13	0	0	0	0	511
14	0	0	0	0	0
15	0	0	0	0	924
0	0	0	0	0	0
1	0	0	0	0	1022
2	0	0	0	0	0
3	0	0	0	0	1022
4	0	0	0	0	540
5	0	0	0	0	860
6	0	0	0	0	734
7	0	0	0	0	1022
8	0	0	0	0	0
9	0	0	0	0	1022
10	0	0	0	0	25
11	0	0	0	0	575
12	0	0	0	0	341
13	0	0	0	0	755
14	0	0	0	0	1019
15	0	0	0	0	56
0	0	0	0	0	68
1	0	0	0	0	1022
2	0	0	0	0	783
3	0	0	0	0	0
4	0	0	0	0	372
5	0	0	0	0	625
6	0	0	0	0	543
7	0	0	0	0	876
8	0	0	0	0	64
9	0	0	0	0	168
10	0	0	0	0	1022
11	0	0	0	0	839
12	0	0	0	0	1022
13	0	0	0	0	217
14	0	0	0	0	576
15	0	0	0	0	1022
0	0	0	0	0	0
1	0	0	0	0	1000
2	0	0	0	0	403
3	0	0	0	0	1022
4	0	0	0	0	212
5	0	0	0	0	0
6	0	0	0	0	1022
7	0	0	0	0	202
8	0	0	0	0	947
9	0	0	0	0	318
10	0	0	0	0	848
11	0	0	0	0	761
12	0	0	0	0	575
13	0	0	0	0	217
14	0	0	0	0	180
15	0	0	0	0	213
0	0	0	0	0	830
1	0	0	0	0	66
2	0	0	0	0	525
3	0	0	0	0	346
4	0	0	0	0	947
5	0	0	0	0	92
6	0	0	0	0	494
7	0	0	0	0	673
8	0	0	0	0	305
9	0	0	0	0	1022
10	0	0	0	0	638
11	0	0	0	0	502
12	0	0	0	0	559
13	0	0	0	0	315
14	0	0	0	0	756
15	0	0	0	0	743
0	0	0	0	0	15
1	0	0	0	0	604
2	0	0	0	0	503
3	0	0	0	0	455
4	0	0	0	0	591
5	0	0	0	0	431
6	0	0	0	0	530
7	0	0	0	0	589
8	0	0	0	0	524
9	0	0	0	0	453
10	0	0	0	0	471
11	0	0	0	0	556
12	0	0	0	0	551
13	0	0	0	0	487
14	0	0	0	0	528
15	0	0	0	0	524
0	0	0	0	0	501
1	0	0	0	0	468
2	0	0	0	0	545
3	0	0	0	0	529
4	0	0	0	0	529
5	0	0	0	0	504
6	0	0	0	0	517
7	0	0	0	0	520
8	0	0	0	0	496
9	0	0	0	0	483
10	0	0	0	0	552
11	0	0	0	0	442
12	0	0	0	0	600
13	0	0	0	0	524
14	0	0	0	0	501
15	0	0	0	0	510
0	0	0	0	0	499
1	0	0	0	0	566
2	0	0	0	0	494
3	0	0	0	0	505
4	0	0	0	0	525
5	0	0	0	0	519
6	0	0	0	0	513
7	0	0	0	0	504
8	0	0	0	0	538
9	0	0	0	0	493
10	0	0	0	0	512
11	0	0	0	0	489
12	0	0	0	0	508
13	0	0	0	0	494
14	0	0	0	0	524
15	0	0	0	0	479
0	0	0	0	0	505
1	0	0	0	0	513
2	0	0	0	0	504
3	0	0	0	0	511
4	0	0	0	0	574
5	0	0	0	0	474
6	0	0	0	0	546
7	0	0	0	0	529
8	0	0	0	0	523
9	0	0	0	0	484
10	0	0	0	0	591
11	0	0	0	0	509
12	0	0	0	0	518
13	0	0	0	0	541
14	0	0	0	0	483
15	0	0	0	0	434
0	0	0	0	0	609
1	0	0	0	0	526
2	0	0	0	0	497
3	0	0	0	0	499
4	0	0	0	0	482
5	0	0	0	0	518
6	0	0	0	0	508
7	0	0	0	0	544
8	0	0	0	0	489
9	0	0	0	0	546
10	0	0	0	0	439
11	0	0	0	0	560
12	0	0	0	0	505
13	0	0	0	0	509
14	0	0	0	0	487
15	0	0	0	0	503
0	0	0	0	0	511
1	0	0	0	0	536
2	0	0	0	0	505
3	0	0	0	0	487
4	0	0	0	0	530
5	0	0	0	0	562
6	0	0	0	0	509
7	0	0	0	0	515
8	0	0	0	0	572
9	0	0	0	0	514
10	0	0	0	0	449
11	0	0	0	0	504
12	0	0	0	0	498
13	0	0	0	0	583
14	0	0	0	0	509
15	0	0	0	0	514
0	0	0	0	0	480
1	0	0	0	0	523
2	0	0	0	0	493
3	0	0	0	0	514
4	0	0	0	0	526
5	0	0	0	0	517
6	0	0	0	0	556
7	0	0	0	0	502
8	0	0	0	0	495
9	0	0	0	0	531
10	0	0	0	0	564
11	0	0	0	0	523
12	0	0	0	0	472
13	0	0	0	0	517
14	0	0	0	0	507
15	0	0	0	0	507
0	0	0	0	0	513
1	0	0	0	0	555
2	0	0	0	0	481
3	0	0	0	0	506
4	0	0	0	0	496
5	0	0	0	0	548
6	0	0	0	0	489
7	0	0	0	0	551
8	0	0	0	0	449
9	0	0	0	0	528
10	0	0	0	0	537
11	0	0	0	0	523
12	0	0	0	0	448
13	0	0	0	0	540
14	0	0	0	0	503
15	0	0	0	0	518
0	0	0	0	0	537
1	0	0	0	0	516
2	0	0	0	0	493
3	0	0	0	0	543
4	0	0	0	0	707
5	0	0	0	0	433
6	0	0	0	0	490
7	0	0	0	0	485
8	0	0	0	0	560
9	0	0	0	0	483
10	0	0	0	0	608
11	0	0	0	0	711
12	0	0	0	0	424
13	0	0	0	0	574
14	0	0	0	0	433
15	0	0	0	0	595
0	0	0	0	0	548
1	0	0	0	0	510
2	0	0	0	0	399
3	0	0	0	0	495
4	0	0	0	0	538
5	0	0	0	0	384
6	0	0	0	0	490
7	0	0	0	0	505
8	0	0	0	0	394
9	0	0	0	0	527
10	0	0	0	0	508
11	0	0	0	0	548
12	0	0	0	0	506
13	0	0	0	0	477
14	0	0	0	0	482
15	0	0	0	0	523
0	0	0	0	0	525
1	0	0	0	0	510
2	0	0	0	0	493
3	0	0	0	0	518
4	0	0	0	0	538
5	0	0	0	0	521
6	0	0	0	0	525
7	0	0	0	0	537
8	0	0	0	0	526
9	0	0	0	0	480
10	0	0	0	0	541
11	0	0	0	0	491
12	0	0	0	0	503
13	0	0	0	0	465
14	0	0	0	0	497
15	0	0	0	0	527
0	0	0	0	0	504
1	0	0	0	0	515
2	0	0	0	0	565
3	0	0	0	0	493
4	0	0	0	0	512
5	0	0	0	0	490
6	0	0	0	0	483
7	0	0	0	0	518
8	0	0	0	0	442
9	0	0	0	0	512
10	0	0	0	0	508
11	0	0	0	0	519
12	0	0	0	0	486
13	0	0	0	0	601
14	0	0	0	0	534
15	0	0	0	0	539
0	0	0	0	0	495
1	0	0	0	0	482
2	0	0	0	0	433
3	0	0	0	0	509
4	0	0	0	0	502
5	0	0	0	0	498
6	0	0	0	0	473
7	0	0	0	0	554
8	0	0	0	0	476
9	0	0	0	0	560
10	0	0	0	0	495
11	0	0	0	0	511
12	0	0	0	0	490
13	0	0	0	0	535
14	0	0	0	0	512
15	0	0	0	0	568
0	0	0	0	0	557
1	0	0	0	0	519
2	0	0	0	0	525
3	0	0	0	0	525
4	0	0	0	0	510
5	0	0	0	0	537
6	0	0	0	0	500
7	0	0	0	0	502
8	0	0	0	0	488
9	0	0	0	0	532
10	0	0	0	0	462
11	0	0	0	0	513
12	0	0	0	0	505
13	0	0	0	0	529
14	0	0	0	0	496
15	0	0	0	0	520
0	0	0	0	0	499
1	0	0	0	0	530
2	0	0	0	0	438
3	0	0	0	0	551
4	0	0	0	0	491
5	0	0	0	0	519
6	0	0	0	0	511
7	0	0	0	0	540
8	0	0	0	0	499
9	0	0	0	0	524
10	0	0	0	0	493
11	0	0	0	0	514
12	0	0	0	0	496
13	0	0	0	0	508
14	0	0	0	0	502
15	0	0	0	0	525
0	0	0	0	0	519
1	0	0	0	0	493
2	0	0	0	0	519
3	0	0	0	0	515
4	0	0	0	0	524
5	0	0	0	0	551
6	0	0	0	0	495
7	0	0	0	0	525
8	0	0	0	0	479
9	0	0	0	0	546
10	0	0	0	0	487
11	0	0	0	0	498
12	0	0	0	0	490
13	0	0	0	0	378
14	0	0	0	0	593
15	0	0	0	0	429
0	0	0	0	0	527
1	0	0	0	0	571
2	0	0	0	0	468
3	0	0	0	0	531
4	0	0	0	0	478
5	0	0	0	0	472
6	0	0	0	0	485
7	0	0	0	0	551
8	0	0	0	0	560
9	0	0	0	0	484
10	0	0	0	0	558
11	0	0	0	0	452
12	0	0	0	0	563
13	0	0	0	0	496
14	0	0	0	0	486
15	0	0	0	0	595
0	0	0	0	0	494
1	0	0	0	0	576
2	0	0	0	0	429
3	0	0	0	0	556
4	0	0	0	0	375
5	0	0	0	0	619
6	0	0	0	0	545
7	0	0	0	0	433
8	0	0	0	0	626
9	0	0	0	0	478
10	0	0	0	0	495
11	0	0	0	0	479
12	0	0	0	0	615
13	0	0	0	0	341
14	0	0	0	0	669
15	0	0	0	0	491
0	0	0	0	0	389
1	0	0	0	0	661
2	0	0	0	0	383
3	0	0	0	0	843
4	0	0	0	0	223
5	0	0	0	0	669
6	0	0	0	0	612
7	0	0	0	0	515
8	0	0	0	0	462
9	0	0	0	0	488
10	0	0	0	0	740
11	0	0	0	0	0
12	0	0	0	0	782
13	0	0	0	0	0
14	0	0	0	0	1022
15	0	0	0	0	156
0	0	0	0	0	870
1	0	0	0	0	0
2	0	0	0	0	771
3	0	0	0	0	1022
4	0	0	0	0	204
5	0	0	0	0	506
6	0	0	0	0	1022
7	0	0	0	0	0
8	0	0	0	0	1022
9	0	0	0	0	35
10	0	0	0	0	1022
11	0	0	0	0	89
12	0	0	0	0	260
13	0	0	0	0	1022
14	0	0	0	0	0
15	0	0	0	0	159
0	0	0	0	0	171
1	0	0	0	0	310
2	0	0	0	0	138
3	0	0	0	0	277
4	0	0	0	0	824
5	0	0	0	0	1022
6	0	0	0	0	0
7	0	0	0	0	193
8	0	0	0	0	236
9	0	0	0	0	645
10	0	0	0	0	936
11	0	0	0	0	556
12	0	0	0	0	60
13	0	0	0	0	310
14	0	0	0	0	415
15	0	0	0	0	135
0	0	0	0	0	1022
1	0	0	0	0	789
2	0	0	0	0	187
3	0	0	0	0	322
4	0	0	0	0	1022
5	0	0	0	0	890
6	0	0	0	0	236
7	0	0	0	0	1022
8	0	0	0	0	0
9	0	0	0	0	402
10	0	0	0	0	371
11	0	0	0	0	602
12	0	0	0	0	1022
13	0	0	0	0	0
14	0	0	0	0	0
15	0	0	0	0	546
0	0	0	0	0	204
1	0	0	0	0	675
2	0	0	0	0	297
3	0	0	0	0	633
4	0	0	0	0	404
5	0	0	0	0	1022
6	0	0	0	0	589
7	0	0	0	0	612
8	0	0	0	0	209
9	0	0	0	0	1022
10	0	0	0	0	1022
11	0	0	0	0	961
12	0	0	0	0	366
13	0	0	0	0	204
14	0	0	0	0	1021
15	0	0	0	0	0
0	0	0	0	0	175
1	0	0	0	0	578
2	0	0	0	0	827
3	0	0	0	0	407
4	0	0	0	0	220
5	0	0	0	0	408
6	0	0	0	0	322
7	0	0	0	0	183
8	0	0	0	0	342
9	0	0	0	0	1020
10	0	0	0	0	693
11	0	0	0	0	597
12	0	0	0	0	1021
13	0	0	0	0	299
14	0	0	0	0	581
15	0	0	0	0	671
0	0	0	0	0	312
1	0	0	0	0	618
2	0	0	0	0	510
3	0	0	0	0	456
4	0	0	0	0	549
5	0	0	0	0	495
6	0	0	0	0	427
7	0	0	0	0	529
8	0	0	0	0	504
9	0	0	0	0	523
10	0	0	0	0	504
11	0	0	0	0	493
12	0	0	0	0	531
13	0	0	0	0	504
14	0	0	0	0	449
15	0	0	0	0	543
0	0	0	0	0	460
1	0	0	0	0	612
2	0	0	0	0	420
3	0	0	0	0	502
4	0	0	0	0	527
5	0	0	0	0	553
6	0	0	0	0	479
7	0	0	0	0	499
8	0	0	0	0	585
9	0	0	0	0	511
10	0	0	0	0	489
11	0	0	0	0	545
12	0	0	0	0	476
13	0	0	0	0	506
14	0	0	0	0	510
15	0	0	0	0	580
0	0	0	0	0	487
1	0	0	0	0	539
2	0	0	0	0	531
3	0	0	0	0	503
4	0	0	0	0	509
5	0	0	0	0	524
6	0	0	0	0	504
7	0	0	0	0	477
8	0	0	0	0	587
9	0	0	0	0	484
10	0	0	0	0	500
11	0	0	0	0	525
12	0	0	0	0	494
13	0	0	0	0	519
14	0	0	0	0	496
15	0	0	0	0	526
0	0	0	0	0	510
1	0	0	0	0	620
2	0	0	0	0	507
3	0	0	0	0	508
4	0	0	0	0	449
5	0	0	0	0	519
6	0	0	0	0	498
7	0	0	0	0	526
8	0	0	0	0	515
9	0	0	0	0	482
10	0	0	0	0	519
11	0	0	0	0	598
12	0	0	0	0	573
13	0	0	0	0	484
14	0	0	0	0	447
15	0	0	0	0	496
0	0	0	0	0	515
1	0	0	0	0	522
2	0	0	0	0	516
3	0	0	0	0	517
4	0	0	0	0	524
5	0	0	0	0	511
6	0	0	0	0	505
7	0	0	0	0	449
8	0	0	0	0	540
9	0	0	0	0	583
10	0	0	0	0	463
11	0	0	0	0	496
12	0	0	0	0	490
13	0	0	0	0	540
14	0	0	0	0	524
15	0	0	0	0	568
0	0	0	0	0	493
1	0	0	0	0	534
2	0	0	0	0	496
3	0	0	0	0	538
4	0	0	0	0	491
5	0	0	0	0	537
6	0	0	0	0	505
7	0	0	0	0	523
8	0	0	0	0	513
9	0	0	0	0	626
10	0	0	0	0	480
11	0	0	0	0	498
12	0	0	0	0	559
13	0	0	0	0	520
14	0	0	0	0	487
15	0	0	0	0	596
0	0	0	0	0	451
1	0	0	0	0	675
2	0	0	0	0	581
3	0	0	0	0	513
4	0	0	0	0	499
5	0	0	0	0	526
6	0	0	0	0	511
7	0	0	0	0	474
8	0	0	0	0	542
9	0	0	0	0	515
10	0	0	0	0	559
11	0	0	0	0	508
12	0	0	0	0	574
13	0	0	0	0	753
14	0	0	0	0	429
15	0	0	0	0	518
0	0	0	0	0	536
1	0	0	0	0	628
2	0	0	0	0	376
3	0	0	0	0	509
4	0	0	0	0	426
5	0	0	0	0	519
6	0	0	0	0	501
7	0	0	0	0	511
8	0	0	0	0	546
9	0	0	0	0	481
10	0	0	0	0	505
11	0	0	0	0	498
12	0	0	0	0	463
13	0	0	0	0	513
14	0	0	0	0	595
15	0	0	0	0	486
0	0	0	0	0	491
1	0	0	0	0	507
2	0	0	0	0	504
3	0	0	0	0	510
4	0	0	0	0	501
5	0	0	0	0	568
6	0	0	0	0	501
7	0	0	0	0	512
8	0	0	0	0	484
9	0	0	0	0	513
10	0	0	0	0	546
11	0	0	0	0	542
12	0	0	0	0	498
13	0	0	0	0	507
14	0	0	0	0	488
15	0	0	0	0	561
0	0	0	0	0	484
1	0	0	0	0	510
2	0	0	0	0	526
3	0	0	0	0	539
4	0	0	0	0	511
5	0	0	0	0	549
6	0	0	0	0	506
7	0	0	0	0	516
8	0	0	0	0	477
9	0	0	0	0	526
10	0	0	0	0	488
11	0	0	0	0	517
12	0	0	0	0	488
13	0	0	0	0	524
14	0	0	0	0	503
15	0	0	0	0	515
0	0	0	0	0	525
1	0	0	0	0	560
2	0	0	0	0	462
3	0	0	0	0	519
4	0	0	0	0	515
5	0	0	0	0	506
6	0	0	0	0	516
7	0	0	0	0	569
8	0	0	0	0	509
9	0	0	0	0	522
10	0	0	0	0	495
11	0	0	0	0	509
12	0	0	0	0	560
13	0	0	0	0	564
14	0	0	0	0	511
15	0	0	0	0	531
0	0	0	0	0	539
1	0	0	0	0	480
2	0	0	0	0	567
3	0	0	0	0	472
4	0	0	0	0	389
5	0	0	0	0	531
6	0	0	0	0	493
7	0	0	0	0	514
8	0	0	0	0	517
9	0	0	0	0	485
10	0	0	0	0	558
11	0	0	0	0	514
12	0	0	0	0	517
13	0	0	0	0	518
14	0	0	0	0	575
15	0	0	0	0	519
0	0	0	0	0	497
1	0	0	0	0	504
2	0	0	0	0	487
3	0	0	0	0	513
4	0	0	0	0	495
5	0	0	0	0	475
6	0	0	0	0	500
7	0	0	0	0	530
8	0	0	0	0	531
9	0	0	0	0	506
10	0	0	0	0	457
11	0	0	0	0	521
12	0	0	0	0	488
13	0	0	0	0	619
14	0	0	0	0	449
15	0	0	0	0	424
0	0	0	0	0	495
1	0	0	0	0	546
2	0	0	0	0	574
3	0	0	0	0	508
4	0	0	0	0	520
5	0	0	0	0	480
6	0	0	0	0	505
7	0	0	0	0	528
8	0	0	0	0	498
9	0	0	0	0	591
10	0	0	0	0	493
11	0	0	0	0	449
12	0	0	0	0	490
13	0	0	0	0	517
14	0	0	0	0	435
15	0	0	0	0	438
0	0	0	0	0	578
1	0	0	0	0	524
2	0	0	0	0	503
3	0	0	0	0	563
4	0	0	0	0	505
5	0	0	0	0	494
6	0	0	0	0	560
7	0	0	0	0	638
8	0	0	0	0	404
9	0	0	0	0	504
10	0	0	0	0	499
11	0	0	0	0	442
12	0	0	0	0	656
13	0	0	0	0	323
14	0	0	0	0	583
15	0	0	0	0	790
0	0	0	0	0	386
1	0	0	0	0	844
2	0	0	0	0	0
3	0	0	0	0	806
4	0	0	0	0	429
5	0	0	0	0	275
6	0	0	0	0	797
7	0	0	0	0	163
8	0	0	0	0	551
9	0	0	0	0	573
10	0	0	0	0	518
11	0	0	0	0	865
12	0	0	0	0	259
13	0	0	0	0	585
14	0	0	0	0	660
15	0	0	0	0	0
0	0	0	0	0	757
1	0	0	0	0	193
2	0	0	0	0	799
3	0	0	0	0	258
4	0	0	0	0	864
5	0	0	0	0	771
6	0	0	0	0	1005
7	0	0	0	0	513
8	0	0	0	0	0
9	0	0	0	0	1022
10	0	0	0	0	0
11	0	0	0	0	1022
12	0	0	0	0	0
13	0	0	0	0	1022
14	0	0	0	0	0
15	0	0	0	0	726
0	0	0	0	0	980
1	0	0	0	0	0
2	0	0	0	0	1022
3	0	0	0	0	0
4	0	0	0	0	588
5	0	0	0	0	480
6	0	0	0	0	0
7	0	0	0	0	728
8	0	0	0	0	675
9	0	0	0	0	461
10	0	0	0	0	1022
11	0	0	0	0	500
12	0	0	0	0	116
13	0	0	0	0	1022
14	0	0	0	0	828
15	0	0	0	0	32
0	0	0	0	0	738
1	0	0	0	0	622
2	0	0	0	0	275
3	0	0	0	0	76
4	0	0	0	0	519
5	0	0	0	0	679
6	0	0	0	0	962
7	0	0	0	0	138
8	0	0	0	0	53
9	0	0	0	0	658
10	0	0	0	0	135
11	0	0	0	0	1022
12	0	0	0	0	633
13	0	0	0	0	37
14	0	0	0	0	741
15	0	0	0	0	0
0	0	0	0	0	503
1	0	0	0	0	262
2	0	0	0	0	699
3	0	0	0	0	427
4	0	0	0	0	486
5	0	0	0	0	684
6	0	0	0	0	1022
7	0	0	0	0	327
8	0	0	0	0	232
9	0	0	0	0	728
10	0	0	0	0	491
11	0	0	0	0	0
12	0	0	0	0	424
13	0	0	0	0	123
14	0	0	0	0	177
15	0	0	0	0	677
0	0	0	0	0	295
1	0	0	0	0	1022
2	0	0	0	0	460
3	0	0	0	0	448
4	0	0	0	0	926
5	0	0	0	0	542
6	0	0	0	0	278
7	0	0	0	0	73
8	0	0	0	0	749
9	0	0	0	0	348
10	0	0	0	0	559
11	0	0	0	0	608
12	0	0	0	0	447
13	0	0	0	0	476
14	0	0	0	0	675
15	0	0	0	0	536
0	0	0	0	0	318
1	0	0	0	0	700
2	0	0	0	0	354
3	0	0	0	0	573
4	0	0	0	0	462
5	0	0	0	0	425
6	0	0	0	0	534
7	0	0	0	0	449
8	0	0	0	0	583
9	0	0	0	0	504
10	0	0	0	0	471
11	0	0	0	0	403
12	0	0	0	0	712
13	0	0	0	0	447
14	0	0	0	0	500
15	0	0	0	0	434
0	0	0	0	0	563
1	0	0	0	0	473
2	0	0	0	0	585
3	0	0	0	0	500
4	0	0	0	0	619
5	0	0	0	0	438
6	0	0	0	0	521
7	0	0	0	0	523
8	0	0	0	0	472
9	0	0	0	0	542
10	0	0	0	0	485
11	0	0	0	0	502
12	0	0	0	0	670
13	0	0	0	0	470
14	0	0	0	0	497
15	0	0	0	0	518
0	0	0	0	0	520
1	0	0	0	0	487
2	0	0	0	0	500
3	0	0	0	0	507
4	0	0	0	0	547
5	0	0	0	0	531
6	0	0	0	0	506
7	0	0	0	0	496
8	0	0	0	0	563
9	0	0	0	0	499
10	0	0	0	0	533
11	0	0	0	0	536
12	0	0	0	0	492
13	0	0	0	0	533
14	0	0	0	0	497
15	0	0	0	0	527
0	0	0	0	0	508
1	0	0	0	0	519
2	0	0	0	0	511
3	0	0	0	0	513
4	0	0	0	0	522
5	0	0	0	0	519
6	0	0	0	0	521
7	0	0	0	0	495
8	0	0	0	0	502
9	0	0	0	0	627
10	0	0	0	0	494
11	0	0	0	0	486
12	0	0	0	0	534
13	0	0	0	0	505
14	0	0	0	0	514
15	0	0	0	0	521
0	0	0	0	0	440
1	0	0	0	0	576
2	0	0	0	0	503
3	0	0	0	0	489
4	0	0	0	0	522
5	0	0	0	0	507
6	0	0	0	0	519
7	0	0	0	0	512
8	0	0	0	0	503
9	0	0	0	0	527
10	0	0	0	0	529
11	0	0	0	0	483
12	0	0	0	0	534
13	0	0	0	0	496
14	0	0	0	0	499
15	0	0	0	0	515
0	0	0	0	0	519
1	0	0	0	0	498
2	0	0	0	0	506
3	0	0	0	0	529
4	0	0	0	0	540
5	0	0	0	0	503
6	0	0	0	0	502
7	0	0	0	0	505
8	0	0	0	0	520
9	0	0	0	0	528
10	0	0	0	0	521
11	0	0	0	0	516
12	0	0	0	0	568
13	0	0	0	0	489
14	0	0	0	0	501
15	0	0	0	0	476
0	0	0	0	0	521
1	0	0	0	0	515
2	0	0	0	0	526
3	0	0	0	0	499
4	0	0	0	0	532
5	0	0	0	0	549
6	0	0	0	0	497
7	0	0	0	0	494
8	0	0	0	0	485
9	0	0	0	0	507
10	0	0	0	0	524
11	0	0	0	0	503
12	0	0	0	0	524
13	0	0	0	0	499
14	0	0	0	0	528
15	0	0	0	0	503
0	0	0	0	0	487
1	0	0	0	0	586
2	0	0	0	0	527
3	0	0	0	0	514
4	0	0	0	0	487
5	0	0	0	0	470
6	0	0	0	0	510
7	0	0	0	0	486
8	0	0	0	0	535
9	0	0	0	0	608
10	0	0	0	0	526
11	0	0	0	0	537
12	0	0	0	0	531
13	0	0	0	0	482
14	0	0	0	0	494
15	0	0	0	0	499
0	0	0	0	0	516
1	0	0	0	0	526
2	0	0	0	0	508
3	0	0	0	0	513
4	0	0	0	0	522
5	0	0	0	0	515
6	0	0	0	0	562
7	0	0	0	0	520
8	0	0	0	0	492
9	0	0	0	0	481
10	0	0	0	0	523
11	0	0	0	0	520
12	0	0	0	0	512
13	0	0	0	0	498
14	0	0	0	0	467
15	0	0	0	0	483
0	0	0	0	0	504
1	0	0	0	0	492
2	0	0	0	0	502
3	0	0	0	0	487
4	0	0	0	0	515
5	0	0	0	0	506
6	0	0	0	0	551
7	0	0	0	0	489
8	0	0	0	0	532
9	0	0	0	0	502
10	0	0	0	0	541
11	0	0	0	0	513
12	0	0	0	0	521
13	0	0	0	0	485
14	0	0	0	0	592
15	0	0	0	0	488
0	0	0	0	0	544
1	0	0	0	0	521
2	0	0	0	0	516
3	0	0	0	0	512
4	0	0	0	0	527
5	0	0	0	0	504
6	0	0	0	0	520
7	0	0	0	0	532
8	0	0	0	0	511
9	0	0	0	0	481
10	0	0	0	0	517
11	0	0	0	0	504
12	0	0	0	0	519
13	0	0	0	0	528
14	0	0	0	0	515
15	0	0	0	0	501
0	0	0	0	0	521
1	0	0	0	0	530
2	0	0	0	0	515
3	0	0	0	0	503
4	0	0	0	0	521
5	0	0	0	0	495
6	0	0	0	0	517
7	0	0	0	0	512
8	0	0	0	0	521
9	0	0	0	0	498
10	0	0	0	0	527
11	0	0	0	0	505
12	0	0	0	0	571
13	0	0	0	0	509
14	0	0	0	0	521
15	0	0	0	0	509
0	0	0	0	0	527
1	0	0	0	0	482
2	0	0	0	0	514
3	0	0	0	0	509
4	0	0	0	0	519
5	0	0	0	0	506
6	0	0	0	0	501
7	0	0	0	0	516
8	0	0	0	0	546
9	0	0	0	0	508
10	0	0	0	0	502
11	0	0	0	0	534
12	0	0	0	0	519
13	0	0	0	0	505
14	0	0	0	0	521
15	0	0	0	0	505
0	0	0	0	0	523
1	0	0	0	0	506
2	0	0	0	0	511
3	0	0	0	0	512
4	0	0	0	0	529
5	0	0	0	0	533
6	0	0	0	0	423
7	0	0	0	0	537
8	0	0	0	0	499
9	0	0	0	0	507
10	0	0	0	0	608
11	0	0	0	0	483
12	0	0	0	0	551
13	0	0	0	0	497
14	0	0	0	0	556
15	0	0	0	0	700
0	0	0	0	0	402
1	0	0	0	0	446
2	0	0	0	0	490
3	0	0	0	0	481
4	0	0	0	0	525
5	0	0	0	0	449
6	0	0	0	0	298
7	0	0	0	0	482
8	0	0	0	0	593
9	0	0	0	0	584
10	0	0	0	0	215
11	0	0	0	0	678
12	0	0	0	0	841
13	0	0	0	0	222
14	0	0	0	0	543
15	0	0	0	0	605
0	0	0	0	0	358
1	0	0	0	0	792
2	0	0	0	0	304
3	0	0	0	0	555
4	0	0	0	0	701
5	0	0	0	0	240
6	0	0	0	0	856
7	0	0	0	0	205
8	0	0	0	0	684
9	0	0	0	0	484
10	0	0	0	0	767
11	0	0	0	0	665
12	0	0	0	0	207
13	0	0	0	0	1022
14	0	0	0	0	591
15	0	0	0	0	0
0	0	0	0	0	1022
1	0	0	0	0	53
2	0	0	0	0	935
3	0	0	0	0	758
4	0	0	0	0	0
5	0	0	0	0	1022
6	0	0	0	0	163
7	0	0	0	0	372
8	0	0	0	0	561
9	0	0	0	0	635
10	0	0	0	0	1022
11	0	0	0	0	92
12	0	0	0	0	310
13	0	0	0	0	176
14	0	0	0	0	458
15	0	0	0	0	1022
0	0	0	0	0	369
1	0	0	0	0	917
2	0	0	0	0	364
3	0	0	0	0	845
4	0	0	0	0	63
5	0	0	0	0	920
6	0	0	0	0	615
7	0	0	0	0	723
8	0	0	0	0	258
9	0	0	0	0	922
10	0	0	0	0	515
11	0	0	0	0	0
12	0	0	0	0	511
13	0	0	0	0	0
14	0	0	0	0	305
15	0	0	0	0	398
0	0	0	0	0	548
1	0	0	0	0	707
2	0	0	0	0	1022
3	0	0	0	0	0
4	0	0	0	0	42
5	0	0	0	0	1022
6	0	0	0	0	991
7	0	0	0	0	739
8	0	0	0	0	228
9	0	0	0	0	420
10	0	0	0	0	827
11	0	0	0	0	707
12	0	0	0	0	1022
13	0	0	0	0	153
14	0	0	0	0	527
15	0	0	0	0	479
0	0	0	0	0	0
1	0	0	0	0	881
2	0	0	0	0	125
3	0	0	0	0	534
4	0	0	0	0	52
5	0	0	0	0	182
6	0	0	0	0	880
7	0	0	0	0	1022
8	0	0	0	0	1022
9	0	0	0	0	245
10	0	0	0	0	628
11	0	0	0	0	860
12	0	0	0	0	435
13	0	0	0	0	650
14	0	0	0	0	353
15	0	0	0	0	217
0	0	0	0	0	137
1	0	0	0	0	716
2	0	0	0	0	803
3	0	0	0	0	407
4	0	0	0	0	1022
5	0	0	0	0	309
6	0	0	0	0	701
7	0	0	0	0	1022
8	0	0	0	0	1022
9	0	0	0	0	1022
10	0	0	0	0	106
11	0	0	0	0	759
12	0	0	0	0	488
13	0	0	0	0	466
14	0	0	0	0	54
15	0	0	0	0	42
0	0	0	0	0	628
1	0	0	0	0	1022
2	0	0	0	0	346
3	0	0	0	0	468
4	0	0	0	0	536
5	0	0	0	0	490
6	0	0	0	0	538
7	0	0	0	0	769
8	0	0	0	0	520
9	0	0	0	0	381
10	0	0	0	0	932
11	0	0	0	0	353
12	0	0	0	0	448
13	0	0	0	0	487
14	0	0	0	0	432
15	0	0	0	0	647
0	0	0	0	0	326
1	0	0	0	0	440
2	0	0	0	0	510
3	0	0	0	0	463
4	0	0	0	0	534
5	0	0	0	0	438
6	0	0	0	0	502
7	0	0	0	0	480
8	0	0	0	0	483
9	0	0	0	0	519
10	0	0	0	0	507
11	0	0	0	0	496
12	0	0	0	0	517
13	0	0	0	0	555
14	0	0	0	0	470
15	0	0	0	0	547
0	0	0	0	0	483
1	0	0	0	0	519
2	0	0	0	0	491
3	0	0	0	0	511
4	0	0	0	0	502
5	0	0	0	0	520
6	0	0	0	0	527
7	0	0	0	0	517
8	0	0	0	0	457
9	0	0	0	0	581
10	0	0	0	0	494
11	0	0	0	0	487
12	0	0	0	0	550
13	0	0	0	0	512
14	0	0	0	0	514
15	0	0	0	0	500
0	0	0	0	0	529
1	0	0	0	0	458
2	0	0	0	0	559
3	0	0	0	0	478
4	0	0	0	0	507
5	0	0	0	0	522
6	0	0	0	0	517
7	0	0	0	0	509
8	0	0	0	0	528
9	0	0	0	0	483
10	0	0	0	0	539
11	0	0	0	0	510
12	0	0	0	0	529
13	0	0	0	0	489
14	0	0	0	0	532
15	0	0	0	0	513
0	0	0	0	0	513
1	0	0	0	0	497
2	0	0	0	0	497
3	0	0	0	0	592
4	0	0	0	0	477
5	0	0	0	0	536
6	0	0	0	0	511
7	0	0	0	0	503
8	0	0	0	0	529
9	0	0	0	0	497
10	0	0	0	0	528
11	0	0	0	0	502
12	0	0	0	0	492
13	0	0	0	0	565
14	0	0	0	0	489
15	0	0	0	0	476
0	0	0	0	0	532
1	0	0	0	0	500
2	0	0	0	0	535
3	0	0	0	0	502
4	0	0	0	0	530
5	0	0	0	0	453
6	0	0	0	0	601
7	0	0	0	0	479
8	0	0	0	0	524
9	0	0	0	0	488
10	0	0	0	0	536
11	0	0	0	0	501
12	0	0	0	0	523
13	0	0	0	0	496
14	0	0	0	0	526
15	0	0	0	0	471
0	0	0	0	0	566
1	0	0	0	0	505
2	0	0	0	0	494
3	0	0	0	0	496
4	0	0	0	0	536
5	0	0	0	0	498
6	0	0	0	0	533
7	0	0	0	0	496
8	0	0	0	0	534
9	0	0	0	0	504
10	0	0	0	0	553
11	0	0	0	0	493
12	0	0	0	0	536
13	0	0	0	0	497
14	0	0	0	0	528
15	0	0	0	0	499
0	0	0	0	0	546
1	0	0	0	0	500
2	0	0	0	0	515
3	0	0	0	0	484
4	0	0	0	0	540
5	0	0	0	0	464
6	0	0	0	0	580
7	0	0	0	0	475
8	0	0	0	0	535
9	0	0	0	0	503
10	0	0	0	0	528
11	0	0	0	0	492
12	0	0	0	0	532
13	0	0	0	0	507
14	0	0	0	0	492
15	0	0	0	0	564
0	0	0	0	0	520
1	0	0	0	0	473
2	0	0	0	0	539
3	0	0	0	0	496
4	0	0	0	0	520
5	0	0	0	0	496
6	0	0	0	0	515
7	0	0	0	0	509
8	0	0	0	0	552
9	0	0	0	0	459
10	0	0	0	0	549
11	0	0	0	0	509
12	0	0	0	0	507
13	0	0	0	0	503
14	0	0	0	0	529
15	0	0	0	0	488
0	0	0	0	0	552
1	0	0	0	0	451
2	0	0	0	0	579
3	0	0	0	0	455
4	0	0	0	0	518
5	0	0	0	0	477
6	0	0	0	0	546
7	0	0	0	0	505
8	0	0	0	0	536
9	0	0	0	0	505
10	0	0	0	0	528
11	0	0	0	0	499
12	0	0	0	0	563
13	0	0	0	0	474
14	0	0	0	0	520
15	0	0	0	0	487
0	0	0	0	0	533
1	0	0	0	0	493
2	0	0	0	0	535
3	0	0	0	0	469
4	0	0	0	0	543
5	0	0	0	0	517
6	0	0	0	0	481
7	0	0	0	0	507
8	0	0	0	0	544
9	0	0	0	0	478
10	0	0	0	0	543
11	0	0	0	0	479
12	0	0	0	0	536
13	0	0	0	0	491
14	0	0	0	0	529
15	0	0	0	0	505
0	0	0	0	0	528
1	0	0	0	0	488
2	0	0	0	0	547
3	0	0	0	0	481
4	0	0	0	0	533
5	0	0	0	0	492
6	0	0	0	0	521
7	0	0	0	0	513
8	0	0	0	0	524
9	0	0	0	0	481
10	0	0	0	0	534
11	0	0	0	0	498
12	0	0	0	0	549
13	0	0	0	0	475
14	0	0	0	0	526
15	0	0	0	0	518
0	0	0	0	0	525
1	0	0	0	0	487
2	0	0	0	0	538
3	0	0	0	0	497
4	0	0	0	0	524
5	0	0	0	0	497
6	0	0	0	0	523
7	0	0	0	0	484
8	0	0	0	0	558
9	0	0	0	0	467
10	0	0	0	0	565
11	0	0	0	0	482
12	0	0	0	0	532
13	0	0	0	0	494
14	0	0	0	0	523
15	0	0	0	0	511
0	0	0	0	0	534
1	0	0	0	0	455
2	0	0	0	0	560
3	0	0	0	0	499
4	0	0	0	0	514
5	0	0	0	0	489
6	0	0	0	0	535
7	0	0	0	0	495
8	0	0	0	0	539
9	0	0	0	0	471
10	0	0	0	0	563
11	0	0	0	0	496
12	0	0	0	0	519
13	0	0	0	0	504
14	0	0	0	0	533
15	0	0	0	0	484
0	0	0	0	0	530
1	0	0	0	0	533
2	0	0	0	0	518
3	0	0	0	0	491
4	0	0	0	0	545
5	0	0	0	0	489
6	0	0	0	0	547
7	0	0	0	0	486
8	0	0	0	0	529
9	0	0	0	0	491
10	0	0	0	0	519
11	0	0	0	0	523
12	0	0	0	0	518
13	0	0	0	0	486
14	0	0	0	0	543
15	0	0	0	0	489
0	0	0	0	0	529
1	0	0	0	0	470
2	0	0	0	0	566
3	0	0	0	0	551
4	0	0	0	0	498
5	0	0	0	0	545
6	0	0	0	0	518
7	0	0	0	0	457
8	0	0	0	0	513
9	0	0	0	0	456
10	0	0	0	0	541
11	0	0	0	0	594
12	0	0	0	0	374
13	0	0	0	0	538
14	0	0	0	0	596
15	0	0	0	0	299
0	0	0	0	0	586
1	0	0	0	0	617
2	0	0	0	0	366
3	0	0	0	0	633
4	0	0	0	0	535
5	0	0	0	0	316
6	0	0	0	0	620
7	0	0	0	0	452
8	0	0	0	0	170
9	0	0	0	0	839
10	0	0	0	0	242
11	0	0	0	0	755
12	0	0	0	0	777
13	0	0	0	0	332
14	0	0	0	0	885
15	0	0	0	0	0
0	0	0	0	0	1022
1	0	0	0	0	0
2	0	0	0	0	1022
3	0	0	0	0	58
4	0	0	0	0	409
5	0	0	0	0	815
6	0	0	0	0	589
7	0	0	0	0	711
8	0	0	0	0	335
9	0	0	0	0	657
10	0	0	0	0	678
11	0	0	0	0	315
12	0	0	0	0	227
13	0	0	0	0	919
14	0	0	0	0	0
15	0	0	0	0	1022
0	0	0	0	0	0
1	0	0	0	0	291
2	0	0	0	0	842
3	0	0	0	0	0
4	0	0	0	0	224
5	0	0	0	0	0
6	0	0	0	0	984
7	0	0	0	0	0
8	0	0	0	0	1022
9	0	0	0	0	141
10	0	0	0	0	1022
11	0	0	0	0	67
12	0	0	0	0	480
13	0	0	0	0	732
14	0	0	0	0	1022
15	0	0	0	0	0
0	0	0	0	0	68
1	0	0	0	0	0
2	0	0	0	0	0
3	0	0	0	0	928
4	0	0	0	0	0
5	0	0	0	0	202
6	0	0	0	0	0
7	0	0	0	0	1003
8	0	0	0	0	569
9	0	0	0	0	492
10	0	0	0	0	385
11	0	0	0	0	684
12	0	0	0	0	262
13	0	0	0	0	453
14	0	0	0	0	0
15	0	0	0	0	1022
0	0	0	0	0	0
1	0	0	0	0	843
2	0	0	0	0	192
3	0	0	0	0	1022
4	0	0	0	0	429
5	0	0	0	0	546
6	0	0	0	0	145
7	0	0	0	0	426
8	0	0	0	0	167
9	0	0	0	0	330
10	0	0	0	0	419
11	0	0	0	0	0
12	0	0	0	0	806
13	0	0	0	0	481
14	0	0	0	0	1022
15	0	0	0	0	387
0	0	0	0	0	1022
1	0	0	0	0	679
2	0	0	0	0	648
3	0	0	0	0	130
4	0	0	0	0	311
5	0	0	0	0	96
6	0	0	0	0	873
7	0	0	0	0	40
8	0	0	0	0	359
9	0	0	0	0	709
10	0	0	0	0	451
11	0	0	0	0	1022
12	0	0	0	0	1022
13	0	0	0	0	150
14	0	0	0	0	633
15	0	0	0	0	328
0	0	0	0	0	829
1	0	0	0	0	496
2	0	0	0	0	537
3	0	0	0	0	714
4	0	0	0	0	78
5	0	0	0	0	860
6	0	0	0	0	372
7	0	0	0	0	542
8	0	0	0	0	653
9	0	0	0	0	513
10	0	0	0	0	504
11	0	0	0	0	425
12	0	0	0	0	556
13	0	0	0	0	485
14	0	0	0	0	492
15	0	0	0	0	556
0	0	0	0	0	473
1	0	0	0	0	548
2	0	0	0	0	496
3	0	0	0	0	486
4	0	0	0	0	526
5	0	0	0	0	519
6	0	0	0	0	510
7	0	0	0	0	486
8	0	0	0	0	521
9	0	0	0	0	489
10	0	0	0	0	561
11	0	0	0	0	491
12	0	0	0	0	595
13	0	0	0	0	567
14	0	0	0	0	496
15	0	0	0	0	523
0	0	0	0	0	512
1	0	0	0	0	505
2	0	0	0	0	505
3	0	0	0	0	525
4	0	0	0	0	475
5	0	0	0	0	561
6	0	0	0	0	542
7	0	0	0	0	528
8	0	0	0	0	518
9	0	0	0	0	526
10	0	0	0	0	517
11	0	0	0	0	504
12	0	0	0	0	492
13	0	0	0	0	502
14	0	0	0	0	464
15	0	0	0	0	595
0	0	0	0	0	490
1	0	0	0	0	510
2	0	0	0	0	523
3	0	0	0	0	524
4	0	0	0	0	528
5	0	0	0	0	476
6	0	0	0	0	540
7	0	0	0	0	515
8	0	0	0	0	521
9	0	0	0	0	523
10	0	0	0	0	517
11	0	0	0	0	513
12	0	0	0	0	523
13	0	0	0	0	496
14	0	0	0	0	560
15	0	0	0	0	544
0	0	0	0	0	483
1	0	0	0	0	505
2	0	0	0	0	521
3	0	0	0	0	508
4	0	0	0	0	508
5	0	0	0	0	525
6	0	0	0	0	479
7	0	0	0	0	559
8	0	0	0	0	527
9	0	0	0	0	495
10	0	0	0	0	496
11	0	0	0	0	509
12	0	0	0	0	520
13	0	0	0	0	523
14	0	0	0	0	488
15	0	0	0	0	562
0	0	0	0	0	504
1	0	0	0	0	504
2	0	0	0	0	518
3	0	0	0	0	525
4	0	0	0	0	497
5	0	0	0	0	515
6	0	0	0	0	511
7	0	0	0	0	525
8	0	0	0	0	522
9	0	0	0	0	536
10	0	0	0	0	478
11	0	0	0	0	531
12	0	0	0	0	522
13	0	0	0	0	510
14	0	0	0	0	513
15	0	0	0	0	515
0	0	0	0	0	509
1	0	0	0	0	519
2	0	0	0	0	503
3	0	0	0	0	465
4	0	0	0	0	569
5	0	0	0	0	481
6	0	0	0	0	504
7	0	0	0	0	520
8	0	0	0	0	508
9	0	0	0	0	512
10	0	0	0	0	515
11	0	0	0	0	517
12	0	0	0	0	543
13	0	0	0	0	446
14	0	0	0	0	563
15	0	0	0	0	478
0	0	0	0	0	498
1	0	0	0	0	525
2	0	0	0	0	507
3	0	0	0	0	524
4	0	0	0	0	505
5	0	0	0	0	511
6	0	0	0	0	513
7	0	0	0	0	516
8	0	0	0	0	547
9	0	0	0	0	496
10	0	0	0	0	504
11	0	0	0	0	516
12	0	0	0	0	506
13	0	0	0	0	525
14	0	0	0	0	504
15	0	0	0	0	519
0	0	0	0	0	470
1	0	0	0	0	574
2	0	0	0	0	493
3	0	0	0	0	503
4	0	0	0	0	511
5	0	0	0	0	520
6	0	0	0	0	495
7	0	0	0	0	508
8	0	0	0	0	521
9	0	0	0	0	533
10	0	0	0	0	453
11	0	0	0	0	568
12	0	0	0	0	503
13	0	0	0	0	504
14	0	0	0	0	505
15	0	0	0	0	521
0	0	0	0	0	508
1	0	0	0	0	506
2	0	0	0	0	503
3	0	0	0	0	512
4	0	0	0	0	504
5	0	0	0	0	510
6	0	0	0	0	528
7	0	0	0	0	512
8	0	0	0	0	495
9	0	0	0	0	531
10	0	0	0	0	484
11	0	0	0	0	501
12	0	0	0	0	504
13	0	0	0	0	520
14	0	0	0	0	507
15	0	0	0	0	532
0	0	0	0	0	505
1	0	0	0	0	507
2	0	0	0	0	515
3	0	0	0	0	513
4	0	0	0	0	491
5	0	0	0	0	502
6	0	0	0	0	496
7	0	0	0	0	519
8	0	0	0	0	511
9	0	0	0	0	507
10	0	0	0	0	532
11	0	0	0	0	505
12	0	0	0	0	496
13	0	0	0	0	503
14	0	0	0	0	503
15	0	0	0	0	485
0	0	0	0	0	496
1	0	0	0	0	515
2	0	0	0	0	508
3	0	0	0	0	519
4	0	0	0	0	502
5	0	0	0	0	510
6	0	0	0	0	516
7	0	0	0	0	531
8	0	0	0	0	503
9	0	0	0	0	523
10	0	0	0	0	535
11	0	0	0	0	521
12	0	0	0	0	505
13	0	0	0	0	522
14	0	0	0	0	502
15	0	0	0	0	523
0	0	0	0	0	504
1	0	0	0	0	527
2	0	0	0	0	516
3	0	0	0	0	519
4	0	0	0	0	496
5	0	0	0	0	533
6	0	0	0	0	508
7	0	0	0	0	520
8	0	0	0	0	513
9	0	0	0	0	511
10	0	0	0	0	502
11	0	0	0	0	515
12	0	0	0	0	526
13	0	0	0	0	519
14	0	0	0	0	496
15	0	0	0	0	519
0	0	0	0	0	499
1	0	0	0	0	511
2	0	0	0	0	505
3	0	0	0	0	515
4	0	0	0	0	498
5	0	0	0	0	525
6	0	0	0	0	502
7	0	0	0	0	524
8	0	0	0	0	504
9	0	0	0	0	526
10	0	0	0	0	499
11	0	0	0	0	531
12	0	0	0	0	494
13	0	0	0	0	524
14	0	0	0	0	507
15	0	0	0	0	520
0	0	0	0	0	508
1	0	0	0	0	540
2	0	0	0	0	499
3	0	0	0	0	524
4	0	0	0	0	503
5	0	0	0	0	510
6	0	0	0	0	516
7	0	0	0	0	511
8	0	0	0	0	504
9	0	0	0	0	531
10	0	0	0	0	505
11	0	0	0	0	533
12	0	0	0	0	549
13	0	0	0	0	512
14	0	0	0	0	506
15	0	0	0	0	535
0	0	0	0	0	502
1	0	0	0	0	524
2	0	0	0	0	520
3	0	0	0	0	538
4	0	0	0	0	481
5	0	0	0	0	521
6	0	0	0	0	486
7	0	0	0	0	508
8	0	0	0	0	496
9	0	0	0	0	524
10	0	0	0	0	494
11	0	0	0	0	526
12	0	0	0	0	499
13	0	0	0	0	508
14	0	0	0	0	511
15	0	0	0	0	488
0	0	0	0	0	555
1	0	0	0	0	541
2	0	0	0	0	475
3	0	0	0	0	483
4	0	0	0	0	610
5	0	0	0	0	511
6	0	0	0	0	498
7	0	0	0	0	406
8	0	0	0	0	669
9	0	0	0	0	482
10	0	0	0	0	473
11	0	0	0	0	667
12	0	0	0	0	446
13	0	0	0	0	473
14	0	0	0	0	511
15	0	0	0	0	459
0	0	0	0	0	555
1	0	0	0	0	509
2	0	0	0	0	548
3	0	0	0	0	574
4	0	0	0	0	392
5	0	0	0	0	544
6	0	0	0	0	677
7	0	0	0	0	380
8	0	0	0	0	544
9	0	0	0	0	536
10	0	0	0	0	418
11	0	0	0	0	567
12	0	0	0	0	467
13	0	0	0	0	679
14	0	0	0	0	388
15	0	0	0	0	590
0	0	0	0	0	454
1	0	0	0	0	655
2	0	0	0	0	868
3	0	0	0	0	20
4	0	0	0	0	1022
5	0	0	0	0	0
6	0	0	0	0	1022
7	0	0	0	0	450
8	0	0	0	0	608
9	0	0	0	0	855
10	0	0	0	0	0
11	0	0	0	0	1023
12	0	0	0	0	6
13	0	0	0	0	947
14	0	0	0	0	699
15	0	0	0	0	113
0	0	0	0	0	1022
1	0	0	0	0	416
2	0	0	0	0	1013
3	0	0	0	0	682
4	0	0	0	0	0
5	0	0	0	0	976
6	0	0	0	0	193
7	0	0	0	0	0
8	0	0	0	0	1022
9	0	0	0	0	230
10	0	0	0	0	1022
11	0	0	0	0	0
12	0	0	0	0	635
13	0	0	0	0	513
14	0	0	0	0	455
15	0	0	0	0	299
0	0	0	0	0	258
1	0	0	0	0	1022
2	0	0	0	0	676
3	0	0	0	0	0
4	0	0	0	0	668
5	0	0	0	0	123
6	0	0	0	0	0
7	0	0	0	0	0
8	0	0	0	0	792
9	0	0	0	0	139
10	0	0	0	0	701
11	0	0	0	0	559
12	0	0	0	0	365
13	0	0	0	0	792
14	0	0	0	0	757
15	0	0	0	0	0
0	0	0	0	0	361
1	0	0	0	0	743
2	0	0	0	0	739
3	0	0	0	0	262
4	0	0	0	0	523
5	0	0	0	0	326
6	0	0	0	0	396
7	0	0	0	0	466
8	0	0	0	0	1003
9	0	0	0	0	623
10	0	0	0	0	539
11	0	0	0	0	729
12	0	0	0	0	752
13	0	0	0	0	312
14	0	0	0	0	40
15	0	0	0	0	916
0	0	0	0	0	535
1	0	0	0	0	351
2	0	0	0	0	883
3	0	0	0	0	315
4	0	0	0	0	47
5	0	0	0	0	273
6	0	0	0	0	494
7	0	0	0	0	355
8	0	0	0	0	864
9	0	0	0	0	847
10	0	0	0	0	310
11	0	0	0	0	521
12	0	0	0	0	297
13	0	0	0	0	599
14	0	0	0	0	617
15	0	0	0	0	145
0	0	0	0	0	475
1	0	0	0	0	478
2	0	0	0	0	521
3	0	0	0	0	888
4	0	0	0	0	463
5	0	0	0	0	574
6	0	0	0	0	507
7	0	0	0	0	377
8	0	0	0	0	564
9	0	0	0	0	464
10	0	0	0	0	271
11	0	0	0	0	545
12	0	0	0	0	467
13	0	0	0	0	495
14	0	0	0	0	515
15	0	0	0	0	540
0	0	0	0	0	557
1	0	0	0	0	471
2	0	0	0	0	511
3	0	0	0	0	496
4	0	0	0	0	526
5	0	0	0	0	508
6	0	0	0	0	550
7	0	0	0	0	476
8	0	0	0	0	565
9	0	0	0	0	528
10	0	0	0	0	514
11	0	0	0	0	533
12	0	0	0	0	495
13	0	0	0	0	520
14	0	0	0	0	524
15	0	0	0	0	485
0	0	0	0	0	504
1	0	0	0	0	521
2	0	0	0	0	540
3	0	0	0	0	492
4	0	0	0	0	515
5	0	0	0	0	464
6	0	0	0	0	679
7	0	0	0	0	472
8	0	0	0	0	489
9	0	0	0	0	552
10	0	0	0	0	489
11	0	0	0	0	487
12	0	0	0	0	532
13	0	0	0	0	550
14	0	0	0	0	480
15	0	0	0	0	502
0	0	0	0	0	548
1	0	0	0	0	510
2	0	0	0	0	491
3	0	0	0	0	511
4	0	0	0	0	503
5	0	0	0	0	545
6	0	0	0	0	504
7	0	0	0	0	537
8	0	0	0	0	521
9	0	0	0	0	504
10	0	0	0	0	530
11	0	0	0	0	501
12	0	0	0	0	491
13	0	0	0	0	537
14	0	0	0	0	496
15	0	0	0	0	513
0	0	0	0	0	516
1	0	0	0	0	503
2	0	0	0	0	511
3	0	0	0	0	552
4	0	0	0	0	512
5	0	0	0	0	474
6	0	0	0	0	504
7	0	0	0	0	533
8	0	0	0	0	506
9	0	0	0	0	510
10	0	0	0	0	503
11	0	0	0	0	526
12	0	0	0	0	508
13	0	0	0	0	533
14	0	0	0	0	502
15	0	0	0	0	507
0	0	0	0	0	508
1	0	0	0	0	524
2	0	0	0	0	507
3	0	0	0	0	456
4	0	0	0	0	646
5	0	0	0	0	480
6	0	0	0	0	518
7	0	0	0	0	511
8	0	0	0	0	492
9	0	0	0	0	523
10	0	0	0	0	512
11	0	0	0	0	518
12	0	0	0	0	468
13	0	0	0	0	598
14	0	0	0	0	482
15	0	0	0	0	504
0	0	0	0	0	536
1	0	0	0	0	496
2	0	0	0	0	506
3	0	0	0	0	506
4	0	0	0	0	493
5	0	0	0	0	515
6	0	0	0	0	530
7	0	0	0	0	540
8	0	0	0	0	494
9	0	0	0	0	538
10	0	0	0	0	479
11	0	0	0	0	531
12	0	0	0	0	518
13	0	0	0	0	516
14	0	0	0	0	516
15	0	0	0	0	505
0	0	0	0	0	507
1	0	0	0	0	550
2	0	0	0	0	504
3	0	0	0	0	539
4	0	0	0	0	470
5	0	0	0	0	512
6	0	0	0	0	505
7	0	0	0	0	524
8	0	0	0	0	492
9	0	0	0	0	529
10	0	0	0	0	569
11	0	0	0	0	511
12	0	0	0	0	489
13	0	0	0	0	495
14	0	0	0	0	510
15	0	0	0	0	530
0	0	0	0	0	499
1	0	0	0	0	496
2	0	0	0	0	516
3	0	0	0	0	543
4	0	0	0	0	476
5	0	0	0	0	537
6	0	0	0	0	470
7	0	0	0	0	519
8	0	0	0	0	508
9	0	0	0	0	527
10	0	0	0	0	505
11	0	0	0	0	520
12	0	0	0	0	525
13	0	0	0	0	478
14	0	0	0	0	532
15	0	0	0	0	513
0	0	0	0	0	481
1	0	0	0	0	543
2	0	0	0	0	503
3	0	0	0	0	557
4	0	0	0	0	492
5	0	0	0	0	519
6	0	0	0	0	495
7	0	0	0	0	502
8	0	0	0	0	531
9	0	0	0	0	531
10	0	0	0	0	498
11	0	0	0	0	546
12	0	0	0	0	511
13	0	0	0	0	522
14	0	0	0	0	500
15	0	0	0	0	553
0	0	0	0	0	484
1	0	0	0	0	556
2	0	0	0	0	503
3	0	0	0	0	512
4	0	0	0	0	488
5	0	0	0	0	543
6	0	0	0	0	501
7	0	0	0	0	536
8	0	0	0	0	497
9	0	0	0	0	525
10	0	0	0	0	476
11	0	0	0	0	525
12	0	0	0	0	478
13	0	0	0	0	521
14	0	0	0	0	492
15	0	0	0	0	535
0	0	0	0	0	492
1	0	0	0	0	555
2	0	0	0	0	488
3	0	0	0	0	553
4	0	0	0	0	496
5	0	0	0	0	526
6	0	0	0	0	485
7	0	0	0	0	536
8	0	0	0	0	480
9	0	0	0	0	537
10	0	0	0	0	488
11	0	0	0	0	530
12	0	0	0	0	501
13	0	0	0	0	520
14	0	0	0	0	500
15	0	0	0	0	493
0	0	0	0	0	505
1	0	0	0	0	523
2	0	0	0	0	486
3	0	0	0	0	521
4	0	0	0	0	503
5	0	0	0	0	526
6	0	0	0	0	487
7	0	0	0	0	528
8	0	0	0	0	480
9	0	0	0	0	533
10	0	0	0	0	464
11	0	0	0	0	537
12	0	0	0	0	494
13	0	0	0	0	515
14	0	0	0	0	492
15	0	0	0	0	546
0	0	0	0	0	499
1	0	0	0	0	548
2	0	0	0	0	485
3	0	0	0	0	506
4	0	0	0	0	521
5	0	0	0	0	527
6	0	0	0	0	484
7	0	0	0	0	515
8	0	0	0	0	449
9	0	0	0	0	505
10	0	0	0	0	489
11	0	0	0	0	544
12	0	0	0	0	496
13	0	0	0	0	539
14	0	0	0	0	477
15	0	0	0	0	522
0	0	0	0	0	501
1	0	0	0	0	547
2	0	0	0	0	492
3	0	0	0	0	525
4	0	0	0	0	496
5	0	0	0	0	561
6	0	0	0	0	484
7	0	0	0	0	517
8	0	0	0	0	512
9	0	0	0	0	533
10	0	0	0	0	498
11	0	0	0	0	548
12	0	0	0	0	473
13	0	0	0	0	543
14	0	0	0	0	487
15	0	0	0	0	536
0	0	0	0	0	463
1	0	0	0	0	514
2	0	0	0	0	534
3	0	0	0	0	535
4	0	0	0	0	476
5	0	0	0	0	553
6	0	0	0	0	468
7	0	0	0	0	539
8	0	0	0	0	488
9	0	0	0	0	516
10	0	0	0	0	480
11	0	0	0	0	512
12	0	0	0	0	508
13	0	0	0	0	531
14	0	0	0	0	492
15	0	0	0	0	545
0	0	0	0	0	504
1	0	0	0	0	526
2	0	0	0	0	500
3	0	0	0	0	550
4	0	0	0	0	487
5	0	0	0	0	523
6	0	0	0	0	495
7	0	0	0	0	560
8	0	0	0	0	483
9	0	0	0	0	533
10	0	0	0	0	481
11	0	0	0	0	536
12	0	0	0	0	499
13	0	0	0	0	543
14	0	0	0	0	492
15	0	0	0	0	530
0	0	0	0	0	485
1	0	0	0	0	561
2	0	0	0	0	481
3	0	0	0	0	543
4	0	0	0	0	507
5	0	0	0	0	532
6	0	0	0	0	476
7	0	0	0	0	550
8	0	0	0	0	524
9	0	0	0	0	525
10	0	0	0	0	503
11	0	0	0	0	560
12	0	0	0	0	479
13	0	0	0	0	523
14	0	0	0	0	503
15	0	0	0	0	535
0	0	0	0	0	483
1	0	0	0	0	549
2	0	0	0	0	488
3	0	0	0	0	530
4	0	0	0	0	492
5	0	0	0	0	546
6	0	0	0	0	494
7	0	0	0	0	525
8	0	0	0	0	452
9	0	0	0	0	522
10	0	0	0	0	483
11	0	0	0	0	531
12	0	0	0	0	527
13	0	0	0	0	532
14	0	0	0	0	487
15	0	0	0	0	522
0	0	0	0	0	496
1	0	0	0	0	529
2	0	0	0	0	476
3	0	0	0	0	558
4	0	0	0	0	494
5	0	0	0	0	539
6	0	0	0	0	492
7	0	0	0	0	540
8	0	0	0	0	451
9	0	0	0	0	549
10	0	0	0	0	489
11	0	0	0	0	564
12	0	0	0	0	501
13	0	0	0	0	535
14	0	0	0	0	524
15	0	0	0	0	481
0	0	0	0	0	504
1	0	0	0	0	613
2	0	0	0	0	447
3	0	0	0	0	409
4	0	0	0	0	503
5	0	0	0	0	466
6	0	0	0	0	551
7	0	0	0	0	581
8	0	0	0	0	455
9	0	0	0	0	738
10	0	0	0	0	382
11	0	0	0	0	521
12	0	0	0	0	487
13	0	0	0	0	620
14	0	0	0	0	599
15	0	0	0	0	556
0	0	0	0	0	662
1	0	0	0	0	341
2	0	0	0	0	364
3	0	0	0	0	445
4	0	0	0	0	469
5	0	0	0	0	825
6	0	0	0	0	0
7	0	0	0	0	932
8	0	0	0	0	441
9	0	0	0	0	337
10	0	0	0	0	1021
11	0	0	0	0	0
12	0	0	0	0	894
13	0	0	0	0	618
14	0	0	0	0	543
15	0	0	0	0	564
0	0	0	0	0	346
1	0	0	0	0	940
2	0	0	0	0	363
3	0	0	0	0	230
4	0	0	0	0	832
5	0	0	0	0	537
6	0	0	0	0	826
7	0	0	0	0	0
8	0	0	0	0	1022
9	0	0	0	0	0
10	0	0	0	0	1022
11	0	0	0	0	0
12	0	0	0	0	1022
13	0	0	0	0	1022
14	0	0	0	0	0
15	0	0	0	0	343
0	0	0	0	0	1022
1	0	0	0	0	945
2	0	0	0	0	75
3	0	0	0	0	172
4	0	0	0	0	1022
5	0	0	0	0	69
6	0	0	0	0	16
7	0	0	0	0	432
8	0	0	0	0	433
9	0	0	0	0	56
10	0	0	0	0	1021
11	0	0	0	0	0
12	0	0	0	0	868
13	0	0	0	0	592
14	0	0	0	0	376
15	0	0	0	0	658
0	0	0	0	0	713
1	0	0	0	0	615
2	0	0	0	0	123
3	0	0	0	0	0
4	0	0	0	0	91
5	0	0	0	0	370
6	0	0	0	0	81
7	0	0	0	0	253
8	0	0	0	0	966
9	0	0	0	0	903
10	0	0	0	0	262
11	0	0	0	0	618
12	0	0	0	0	0
13	0	0	0	0	203
14	0	0	0	0	816
15	0	0	0	0	202
0	0	0	0	0	1022
1	0	0	0	0	408
2	0	0	0	0	465
3	0	0	0	0	1022
4	0	0	0	0	250
5	0	0	0	0	39
6	0	0	0	0	1022
7	0	0	0	0	46
8	0	0	0	0	264
9	0	0	0	0	65
10	0	0	0	0	804
11	0	0	0	0	999
12	0	0	0	0	0
13	0	0	0	0	816
14	0	0	0	0	402
15	0	0	0	0	592
0	0	0	0	0	652
1	0	0	0	0	384
2	0	0	0	0	965
3	0	0	0	0	998
4	0	0	0	0	0
5	0	0	0	0	290
6	0	0	0	0	352
7	0	0	0	0	825
8	0	0	0	0	218
9	0	0	0	0	116
10	0	0	0	0	294
11	0	0	0	0	302
12	0	0	0	0	281
13	0	0	0	0	515
14	0	0	0	0	431
15	0	0	0	0	249
0	0	0	0	0	632
1	0	0	0	0	389
2	0	0	0	0	564
3	0	0	0	0	438
4	0	0	0	0	173
5	0	0	0	0	541
6	0	0	0	0	521
7	0	0	0	0	481
8	0	0	0	0	463
9	0	0	0	0	551
10	0	0	0	0	482
11	0	0	0	0	606
12	0	0	0	0	458
13	0	0	0	0	494
14	0	0	0	0	483
15	0	0	0	0	578
0	0	0	0	0	449
1	0	0	0	0	468
2	0	0	0	0	495
3	0	0	0	0	405
4	0	0	0	0	659
5	0	0	0	0	498
6	0	0	0	0	538
7	0	0	0	0	512
8	0	0	0	0	486
9	0	0	0	0	511
10	0	0	0	0	513
11	0	0	0	0	496
12	0	0	0	0	516
13	0	0	0	0	509
14	0	0	0	0	579
15	0	0	0	0	561
0	0	0	0	0	492
1	0	0	0	0	470
2	0	0	0	0	572
3	0	0	0	0	516
4	0	0	0	0	486
5	0	0	0	0	504
6	0	0	0	0	515
7	0	0	0	0	471
8	0	0	0	0	509
9	0	0	0	0	501
10	0	0	0	0	452
11	0	0	0	0	591
12	0	0	0	0	489
13	0	0	0	0	503
14	0	0	0	0	501
15	0	0	0	0	500
0	0	0	0	0	554
1	0	0	0	0	484
2	0	0	0	0	498
3	0	0	0	0	491
4	0	0	0	0	536
5	0	0	0	0	501
6	0	0	0	0	542
7	0	0	0	0	494
8	0	0	0	0	493
9	0	0	0	0	492
10	0	0	0	0	498
11	0	0	0	0	580
12	0	0	0	0	517
13	0	0	0	0	523
14	0	0	0	0	528
15	0	0	0	0	557
0	0	0	0	0	512
1	0	0	0	0	529
2	0	0	0	0	489
3	0	0	0	0	505
4	0	0	0	0	526
5	0	0	0	0	503
6	0	0	0	0	516
7	0	0	0	0	507
8	0	0	0	0	492
9	0	0	0	0	537
10	0	0	0	0	538
11	0	0	0	0	589
12	0	0	0	0	490
13	0	0	0	0	478
14	0	0	0	0	511
15	0	0	0	0	530
0	0	0	0	0	505
1	0	0	0	0	522
2	0	0	0	0	558
3	0	0	0	0	505
4	0	0	0	0	484
5	0	0	0	0	508
6	0	0	0	0	540
7	0	0	0	0	519
8	0	0	0	0	488
9	0	0	0	0	515
10	0	0	0	0	499
11	0	0	0	0	508
12	0	0	0	0	511
13	0	0	0	0	513
14	0	0	0	0	497
15	0	0	0	0	565
0	0	0	0	0	493
1	0	0	0	0	515
2	0	0	0	0	502
3	0	0	0	0	522
4	0	0	0	0	492
5	0	0	0	0	505
6	0	0	0	0	511
7	0	0	0	0	515
8	0	0	0	0	500
9	0	0	0	0	496
10	0	0	0	0	518
11	0	0	0	0	481
12	0	0	0	0	539
13	0	0	0	0	547
14	0	0	0	0	504
15	0	0	0	0	565
0	0	0	0	0	510
1	0	0	0	0	542
2	0	0	0	0	501
3	0	0	0	0	546
4	0	0	0	0	510
5	0	0	0	0	515
6	0	0	0	0	529
7	0	0	0	0	519
8	0	0	0	0	451
9	0	0	0	0	513
10	0	0	0	0	496
11	0	0	0	0	511
12	0	0	0	0	499
13	0	0	0	0	527
14	0	0	0	0	507
15	0	0	0	0	537
0	0	0	0	0	496
1	0	0	0	0	506
2	0	0	0	0	544
3	0	0	0	0	508
4	0	0	0	0	505
5	0	0	0	0	593
6	0	0	0	0	507
7	0	0	0	0	559
8	0	0	0	0	529
9	0	0	0	0	543
10	0	0	0	0	504
11	0	0	0	0	516
12	0	0	0	0	473
13	0	0	0	0	499
14	0	0	0	0	524
15	0	0	0	0	487
0	0	0	0	0	520
1	0	0	0	0	503
2	0	0	0	0	531
3	0	0	0	0	520
4	0	0	0	0	487
5	0	0	0	0	524
6	0	0	0	0	514
7	0	0	0	0	519
8	0	0	0	0	491
9	0	0	0	0	499
10	0	0	0	0	512
11	0	0	0	0	495
12	0	0	0	0	531
13	0	0	0	0	506
14	0	0	0	0	551
15	0	0	0	0	566
0	0	0	0	0	505
1	0	0	0	0	497
2	0	0	0	0	500
3	0	0	0	0	547
4	0	0	0	0	514
5	0	0	0	0	500
6	0	0	0	0	496
7	0	0	0	0	533
8	0	0	0	0	523
9	0	0	0	0	506
10	0	0	0	0	524
11	0	0	0	0	551
12	0	0	0	0	481
13	0	0	0	0	449
14	0	0	0	0	533
15	0	0	0	0	485
0	0	0	0	0	526
1	0	0	0	0	456
2	0	0	0	0	589
3	0	0	0	0	497
4	0	0	0	0	572
5	0	0	0	0	505
6	0	0	0	0	502
7	0	0	0	0	526
8	0	0	0	0	492
9	0	0	0	0	525
10	0	0	0	0	485
11	0	0	0	0	523
12	0	0	0	0	496
13	0	0	0	0	484
14	0	0	0	0	473
15	0	0	0	0	519
0	0	0	0	0	565
1	0	0	0	0	558
2	0	0	0	0	504
3	0	0	0	0	477
4	0	0	0	0	607
5	0	0	0	0	506
6	0	0	0	0	700
7	0	0	0	0	403
8	0	0	0	0	430
9	0	0	0	0	438
10	0	0	0	0	560
11	0	0	0	0	786
12	0	0	0	0	439
13	0	0	0	0	449
14	0	0	0	0	568
15	0	0	0	0	624
0	0	0	0	0	577
1	0	0	0	0	375
2	0	0	0	0	425
3	0	0	0	0	627
4	0	0	0	0	447
5	0	0	0	0	384
6	0	0	0	0	560
7	0	0	0	0	503
8	0	0	0	0	476
9	0	0	0	0	520
10	0	0	0	0	481
11	0	0	0	0	520
12	0	0	0	0	479
13	0	0	0	0	299
14	0	0	0	0	502
15	0	0	0	0	413
0	0	0	0	0	590
1	0	0	0	0	532
2	0	0	0	0	580
3	0	0	0	0	621
4	0	0	0	0	565
5	0	0	0	0	553
6	0	0	0	0	455
7	0	0	0	0	507
8	0	0	0	0	968
9	0	0	0	0	394
10	0	0	0	0	488
11	0	0	0	0	512
12	0	0	0	0	498
13	0	0	0	0	588
14	0	0	0	0	546
15	0	0	0	0	477
0	0	0	0	0	501
1	0	0	0	0	481
2	0	0	0	0	545
3	0	0	0	0	504
4	0	0	0	0	521
5	0	0	0	0	492
6	0	0	0	0	550
7	0	0	0	0	435
8	0	0	0	0	587
9	0	0	0	0	502
10	0	0	0	0	550
11	0	0	0	0	637
12	0	0	0	0	457
13	0	0	0	0	496
14	0	0	0	0	507
15	0	0	0	0	414
0	0	0	0	0	572
1	0	0	0	0	419
2	0	0	0	0	562
3	0	0	0	0	618
4	0	0	0	0	416
5	0	0	0	0	548
6	0	0	0	0	499
7	0	0	0	0	338
8	0	0	0	0	617
9	0	0	0	0	708
10	0	0	0	0	102
11	0	0	0	0	808
12	0	0	0	0	609
13	0	0	0	0	206
14	0	0	0	0	814
15	0	0	0	0	75
0	0	0	0	0	1022
1	0	0	0	0	241
2	0	0	0	0	725
3	0	0	0	0	879
4	0	0	0	0	0
5	0	0	0	0	991
6	0	0	0	0	54
7	0	0	0	0	1022
8	0	0	0	0	0
9	0	0	0	0	582
10	0	0	0	0	840
11	0	0	0	0	44
12	0	0	0	0	652
13	0	0	0	0	331
14	0	0	0	0	1022
15	0	0	0	0	0
0	0	0	0	0	233
1	0	0	0	0	793
2	0	0	0	0	260
3	0	0	0	0	561
4	0	0	0	0	281
5	0	0	0	0	0
6	0	0	0	0	636
7	0	0	0	0	0
8	0	0	0	0	380
9	0	0	0	0	905
10	0	0	0	0	404
11	0	0	0	0	704
12	0	0	0	0	173
13	0	0	0	0	1022
14	0	0	0	0	640
15	0	0	0	0	1022
0	0	0	0	0	0
1	0	0	0	0	1022
2	0	0	0	0	0
3	0	0	0	0	0
4	0	0	0	0	751
5	0	0	0	0	565
6	0	0	0	0	174
7	0	0	0	0	0
8	0	0	0	0	800
9	0	0	0	0	521
10	0	0	0	0	0
11	0	0	0	0	0
12	0	0	0	0	287
13	0	0	0	0	806
14	0	0	0	0	718
15	0	0	0	0	247
0	0	0	0	0	482
1	0	0	0	0	132
2	0	0	0	0	0
3	0	0	0	0	152
4	0	0	0	0	945
5	0	0	0	0	848
6	0	0	0	0	62
7	0	0	0	0	156
8	0	0	0	0	546
9	0	0	0	0	994
10	0	0	0	0	1022
11	0	0	0	0	1022
12	0	0	0	0	331
13	0	0	0	0	741
14	0	0	0	0	518
15	0	0	0	0	363
0	0	0	0	0	235
1	0	0	0	0	683
2	0	0	0	0	871
3	0	0	0	0	237
4	0	0	0	0	294
5	0	0	0	0	840
6	0	0	0	0	527
7	0	0	0	0	959
8	0	0	0	0	220
9	0	0	0	0	7
10	0	0	0	0	597
11	0	0	0	0	616
12	0	0	0	0	591
13	0	0	0	0	0
14	0	0	0	0	204
15	0	0	0	0	591
0	0	0	0	0	731
1	0	0	0	0	834
2	0	0	0	0	332
3	0	0	0	0	1022
4	0	0	0	0	0
5	0	0	0	0	500
6	0	0	0	0	1022
7	0	0	0	0	82
8	0	0	0	0	469
9	0	0	0	0	532
10	0	0	0	0	943
11	0	0	0	0	6
12	0	0	0	0	442
13	0	0	0	0	310
14	0	0	0	0	476
15	0	0	0	0	614
0	0	0	0	0	193
1	0	0	0	0	516
2	0	0	0	0	140
3	0	0	0	0	631
4	0	0	0	0	433
5	0	0	0	0	483
6	0	0	0	0	719
7	0	0	0	0	498
8	0	0	0	0	495
9	0	0	0	0	496
10	0	0	0	0	528
11	0	0	0	0	584
12	0	0	0	0	439
13	0	0	0	0	488
14	0	0	0	0	482
15	0	0	0	0	470
0	0	0	0	0	695
1	0	0	0	0	478
2	0	0	0	0	499
3	0	0	0	0	526
4	0	0	0	0	535
5	0	0	0	0	516
6	0	0	0	0	515
7	0	0	0	0	568
8	0	0	0	0	493
9	0	0	0	0	505
10	0	0	0	0	517
11	0	0	0	0	512
12	0	0	0	0	525
13	0	0	0	0	511
14	0	0	0	0	511
15	0	0	0	0	519
0	0	0	0	0	531
1	0	0	0	0	541
2	0	0	0	0	522
3	0	0	0	0	497
4	0	0	0	0	514
5	0	0	0	0	514
6	0	0	0	0	527
7	0	0	0	0	460
8	0	0	0	0	595
9	0	0	0	0	464
10	0	0	0	0	521
11	0	0	0	0	501
12	0	0	0	0	507
13	0	0	0	0	506
14	0	0	0	0	531
15	0	0	0	0	507
0	0	0	0	0	584
1	0	0	0	0	545
2	0	0	0	0	479
3	0	0	0	0	513
4	0	0	0	0	527
5	0	0	0	0	499
6	0	0	0	0	505
7	0	0	0	0	501
8	0	0	0	0	522
9	0	0	0	0	501
10	0	0	0	0	557
11	0	0	0	0	453
12	0	0	0	0	567
13	0	0	0	0	504
14	0	0	0	0	481
15	0	0	0	0	491
0	0	0	0	0	515
1	0	0	0	0	504
2	0	0	0	0	456
3	0	0	0	0	572
4	0	0	0	0	543
5	0	0	0	0	509
6	0	0	0	0	533
7	0	0	0	0	507
8	0	0	0	0	506
9	0	0	0	0	504
10	0	0	0	0	522
11	0	0	0	0	502
12	0	0	0	0	498
13	0	0	0	0	527
14	0	0	0	0	457
15	0	0	0	0	555
0	0	0	0	0	509
1	0	0	0	0	482
2	0	0	0	0	537
3	0	0	0	0	502
4	0	0	0	0	512
5	0	0	0	0	514
6	0	0	0	0	513
7	0	0	0	0	492
8	0	0	0	0	525
9	0	0	0	0	476
10	0	0	0	0	572
11	0	0	0	0	550
12	0	0	0	0	568
13	0	0	0	0	471
14	0	0	0	0	475
15	0	0	0	0	467
0	0	0	0	0	508
1	0	0	0	0	493
2	0	0	0	0	546
3	0	0	0	0	507
4	0	0	0	0	517
5	0	0	0	0	508
6	0	0	0	0	549
7	0	0	0	0	524
8	0	0	0	0	524
9	0	0	0	0	504
10	0	0	0	0	518
11	0	0	0	0	481
12	0	0	0	0	548
13	0	0	0	0	475
14	0	0	0	0	516
15	0	0	0	0	524
0	0	0	0	0	503
1	0	0	0	0	538
2	0	0	0	0	530
3	0	0	0	0	496
4	0	0	0	0	515
5	0	0	0	0	498
6	0	0	0	0	420
7	0	0	0	0	508
8	0	0	0	0	525
9	0	0	0	0	504
10	0	0	0	0	482
11	0	0	0	0	536
12	0	0	0	0	524
13	0	0	0	0	515
14	0	0	0	0	476
15	0	0	0	0	498
0	0	0	0	0	518
1	0	0	0	0	487
2	0	0	0	0	522
3	0	0	0	0	523
4	0	0	0	0	512
5	0	0	0	0	495
6	0	0	0	0	535
7	0	0	0	0	480
8	0	0	0	0	526
9	0	0	0	0	512
10	0	0	0	0	515
11	0	0	0	0	427
12	0	0	0	0	531
13	0	0	0	0	556
14	0	0	0	0	521
15	0	0	0	0	520
0	0	0	0	0	539
1	0	0	0	0	493
2	0	0	0	0	506
3	0	0	0	0	475
4	0	0	0	0	547
5	0	0	0	0	529
6	0	0	0	0	519
7	0	0	0	0	492
8	0	0	0	0	511
9	0	0	0	0	520
10	0	0	0	0	511
11	0	0	0	0	512
12	0	0	0	0	548
13	0	0	0	0	508
14	0	0	0	0	543
15	0	0	0	0	490
0	0	0	0	0	547
1	0	0	0	0	490
2	0	0	0	0	528
3	0	0	0	0	556
4	0	0	0	0	527
5	0	0	0	0	495
6	0	0	0	0	540
7	0	0	0	0	513
8	0	0	0	0	496
9	0	0	0	0	507
10	0	0	0	0	522
11	0	0	0	0	493
12	0	0	0	0	555
13	0	0	0	0	518
14	0	0	0	0	510
15	0	0	0	0	448
0	0	0	0	0	587
1	0	0	0	0	496
2	0	0	0	0	527
3	0	0	0	0	486
4	0	0	0	0	467
5	0	0	0	0	489
6	0	0	0	0	512
7	0	0	0	0	503
8	0	0	0	0	525
9	0	0	0	0	495
10	0	0	0	0	520
11	0	0	0	0	489
12	0	0	0	0	517
13	0	0	0	0	513
14	0	0	0	0	552
15	0	0	0	0	487
0	0	0	0	0	542
1	0	0	0	0	503
2	0	0	0	0	530
3	0	0	0	0	489
4	0	0	0	0	496
5	0	0	0	0	502
6	0	0	0	0	535
7	0	0	0	0	499
8	0	0	0	0	542
9	0	0	0	0	491
10	0	0	0	0	531
11	0	0	0	0	486
12	0	0	0	0	560
13	0	0	0	0	468
14	0	0	0	0	577
15	0	0	0	0	505
0	0	0	0	0	550
1	0	0	0	0	487
2	0	0	0	0	531
3	0	0	0	0	476
4	0	0	0	0	574
5	0	0	0	0	526
6	0	0	0	0	577
7	0	0	0	0	472
8	0	0	0	0	474
9	0	0	0	0	419
10	0	0	0	0	576
11	0	0	0	0	470
12	0	0	0	0	478
13	0	0	0	0	643
14	0	0	0	0	501
15	0	0	0	0	443
0	0	0	0	0	512
1	0	0	0	0	493
2	0	0	0	0	526
3	0	0	0	0	500
4	0	0	0	0	547
5	0	0	0	0	478
6	0	0	0	0	556
7	0	0	0	0	496
8	0	0	0	0	502
9	0	0	0	0	568
10	0	0	0	0	497
11	0	0	0	0	417
12	0	0	0	0	595
13	0	0	0	0	529
14	0	0	0	0	461
15	0	0	0	0	436
0	0	0	0	0	665
1	0	0	0	0	522
2	0	0	0	0	431
3	0	0	0	0	622
4	0	0	0	0	387
5	0	0	0	0	670
6	0	0	0	0	364
7	0	0	0	0	504
8	0	0	0	0	545
9	0	0	0	0	280
10	0	0	0	0	0
11	0	0	0	0	185
12	0	0	0	0	445
13	0	0	0	0	497
14	0	0	0	0	515
15	0	0	0	0	509
0	0	0	0	0	511
1	0	0	0	0	505
2	0	0	0	0	524
3	0	0	0	0	508
4	0	0	0	0	520
5	0	0	0	0	505
6	0	0	0	0	508
7	0	0	0	0	527
8	0	0	0	0	504
9	0	0	0	0	534
10	0	0	0	0	504
11	0	0	0	0	358
12	0	0	0	0	459
13	0	0	0	0	131
14	0	0	0	0	172
15	0	0	0	0	684
0	0	0	0	0	272
1	0	0	0	0	1022
2	0	0	0	0	0
3	0	0	0	0	657
4	0	0	0	0	1010
5	0	0	0	0	227
6	0	0	0	0	343
7	0	0	0	0	633
8	0	0	0	0	501
9	0	0	0	0	396
10	0	0	0	0	0
11	0	0	0	0	563
12	0	0	0	0	508
13	0	0	0	0	699
14	0	0	0	0	817
15	0	0	0	0	147
0	0	0	0	0	673
1	0	0	0	0	0
2	0	0	0	0	361
3	0	0	0	0	0
4	0	0	0	0	516
5	0	0	0	0	441
6	0	0	0	0	627
7	0	0	0	0	731
8	0	0	0	0	52
9	0	0	0	0	527
10	0	0	0	0	43
11	0	0	0	0	87
12	0	0	0	0	973
13	0	0	0	0	0
14	0	0	0	0	347
15	0	0	0	0	51
0	0	0	0	0	951
1	0	0	0	0	312
2	0	0	0	0	0
3	0	0	0	0	136
4	0	0	0	0	489
5	0	0	0	0	344
6	0	0	0	0	318
7	0	0	0	0	331
8	0	0	0	0	371
9	0	0	0	0	243
10	0	0	0	0	753
11	0	0	0	0	803
12	0	0	0	0	1001
13	0	0	0	0	0
14	0	0	0	0	0
15	0	0	0	0	468
0	0	0	0	0	608
1	0	0	0	0	1022
2	0	0	0	0	396
3	0	0	0	0	71
4	0	0	0	0	270
5	0	0	0	0	808
6	0	0	0	0	407
7	0	0	0	0	975
8	0	0	0	0	1022
9	0	0	0	0	324
10	0	0	0	0	304
11	0	0	0	0	723
12	0	0	0	0	491
13	0	0	0	0	0
14	0	0	0	0	6
15	0	0	0	0	1022
0	0	0	0	0	370
1	0	0	0	0	0
2	0	0	0	0	976
3	0	0	0	0	559
4	0	0	0	0	475
5	0	0	0	0	676
6	0	0	0	0	768
7	0	0	0	0	449
8	0	0	0	0	439
9	0	0	0	0	778
10	0	0	0	0	325
11	0	0	0	0	768
12	0	0	0	0	480
13	0	0	0	0	470
14	0	0	0	0	711
15	0	0	0	0	543
0	0	0	0	0	452
1	0	0	0	0	0
2	0	0	0	0	1022
3	0	0	0	0	345
4	0	0	0	0	480
5	0	0	0	0	912
6	0	0	0	0	632
7	0	0	0	0	348
8	0	0	0	0	226
9	0	0	0	0	596
10	0	0	0	0	1022
11	0	0	0	0	0
12	0	0	0	0	831
13	0	0	0	0	236
14	0	0	0	0	729
15	0	0	0	0	273
0	0	0	0	0	870
1	0	0	0	0	638
2	0	0	0	0	391
3	0	0	0	0	446
4	0	0	0	0	449
5	0	0	0	0	652
6	0	0	0	0	437
7	0	0	0	0	624
8	0	0	0	0	393
9	0	0	0	0	603
10	0	0	0	0	472
11	0	0	0	0	472
12	0	0	0	0	534
13	0	0	0	0	499
14	0	0	0	0	455
15	0	0	0	0	467
0	0	0	0	0	535
1	0	0	0	0	500
2	0	0	0	0	523
3	0	0	0	0	531
4	0	0	0	0	514
5	0	0	0	0	511
6	0	0	0	0	511
7	0	0	0	0	536
8	0	0	0	0	512
9	0	0	0	0	527
10	0	0	0	0	508
11	0	0	0	0	492
12	0	0	0	0	508
13	0	0	0	0	487
14	0	0	0	0	524
15	0	0	0	0	505
0	0	0	0	0	503
1	0	0	0	0	521
2	0	0	0	0	508
3	0	0	0	0	538
4	0	0	0	0	504
5	0	0	0	0	487
6	0	0	0	0	483
7	0	0	0	0	504
8	0	0	0	0	521
9	0	0	0	0	515
10	0	0	0	0	0
11	0	0	0	0	501
12	0	0	0	0	1022
13	0	0	0	0	886
14	0	0	0	0	756
15	0	0	0	0	653
0	0	0	0	0	651
1	0	0	0	0	608
2	0	0	0	0	581
3	0	0	0	0	557
4	0	0	0	0	543
5	0	0	0	0	494
6	0	0	0	0	695
7	0	0	0	0	488
8	0	0	0	0	532
9	0	0	0	0	480
10	0	0	0	0	487
11	0	0	0	0	559
12	0	0	0	0	528
13	0	0	0	0	505
14	0	0	0	0	505
15	0	0	0	0	558
0	0	0	0	0	513
1	0	0	0	0	543
2	0	0	0	0	524
3	0	0	0	0	504
4	0	0	0	0	573
5	0	0	0	0	500
6	0	0	0	0	513
7	0	0	0	0	470
8	0	0	0	0	570
9	0	0	0	0	491
10	0	0	0	0	535
11	0	0	0	0	498
12	0	0	0	0	538
13	0	0	0	0	524
14	0	0	0	0	524
15	0	0	0	0	474
0	0	0	0	0	550
1	0	0	0	0	469
2	0	0	0	0	557
3	0	0	0	0	494
4	0	0	0	0	523
5	0	0	0	0	502
6	0	0	0	0	541
7	0	0	0	0	486
8	0	0	0	0	544
9	0	0	0	0	492
10	0	0	0	0	507
11	0	0	0	0	482
12	0	0	0	0	569
13	0	0	0	0	493
14	0	0	0	0	543
15	0	0	0	0	497
0	0	0	0	0	547
1	0	0	0	0	567
2	0	0	0	0	514
3	0	0	0	0	447
4	0	0	0	0	492
5	0	0	0	0	471
6	0	0	0	0	527
7	0	0	0	0	527
8	0	0	0	0	524
9	0	0	0	0	475
10	0	0	0	0	546
11	0	0	0	0	500
12	0	0	0	0	526
13	0	0	0	0	497
14	0	0	0	0	520
15	0	0	0	0	522
0	0	0	0	0	535
1	0	0	0	0	480
2	0	0	0	0	531
3	0	0	0	0	490
4	0	0	0	0	536
5	0	0	0	0	482
6	0	0	0	0	568
7	0	0	0	0	515
8	0	0	0	0	543
9	0	0	0	0	483
10	0	0	0	0	551
11	0	0	0	0	479
12	0	0	0	0	566
13	0	0	0	0	502
14	0	0	0	0	543
15	0	0	0	0	473
0	0	0	0	0	562
1	0	0	0	0	484
2	0	0	0	0	529
3	0	0	0	0	492
4	0	0	0	0	535
5	0	0	0	0	457
6	0	0	0	0	528
7	0	0	0	0	504
8	0	0	0	0	538
9	0	0	0	0	520
10	0	0	0	0	534
11	0	0	0	0	487
12	0	0	0	0	527
13	0	0	0	0	550
14	0	0	0	0	506
15	0	0	0	0	466
0	0	0	0	0	490
1	0	0	0	0	511
2	0	0	0	0	553
3	0	0	0	0	527
4	0	0	0	0	543
5	0	0	0	0	456
6	0	0	0	0	546
7	0	0	0	0	528
8	0	0	0	0	525
9	0	0	0	0	496
10	0	0	0	0	545
11	0	0	0	0	508
12	0	0	0	0	565
13	0	0	0	0	479
14	0	0	0	0	528
15	0	0	0	0	457
0	0	0	0	0	527
1	0	0	0	0	483
2	0	0	0	0	523
3	0	0	0	0	524
4	0	0	0	0	540
5	0	0	0	0	540
6	0	0	0	0	516
7	0	0	0	0	505
8	0	0	0	0	536
9	0	0	0	0	501
10	0	0	0	0	538
11	0	0	0	0	522
12	0	0	0	0	537
13	0	0	0	0	465
14	0	0	0	0	525
15	0	0	0	0	476
0	0	0	0	0	574
1	0	0	0	0	511
2	0	0	0	0	522
3	0	0	0	0	500
4	0	0	0	0	510
5	0	0	0	0	559
6	0	0	0	0	520
7	0	0	0	0	499
8	0	0	0	0	515
9	0	0	0	0	505
10	0	0	0	0	526
11	0	0	0	0	516
12	0	0	0	0	539
13	0	0	0	0	468
14	0	0	0	0	527
15	0	0	0	0	500
0	0	0	0	0	529
1	0	0	0	0	498
2	0	0	0	0	528
3	0	0	0	0	494
4	0	0	0	0	521
5	0	0	0	0	484
6	0	0	0	0	518
7	0	0	0	0	499
8	0	0	0	0	544
9	0	0	0	0	503
10	0	0	0	0	532
11	0	0	0	0	497
12	0	0	0	0	503
13	0	0	0	0	510
14	0	0	0	0	526
15	0	0	0	0	529
0	0	0	0	0	520
1	0	0	0	0	494
2	0	0	0	0	535
3	0	0	0	0	504
4	0	0	0	0	531
5	0	0	0	0	537
6	0	0	0	0	529
7	0	0	0	0	492
8	0	0	0	0	534
9	0	0	0	0	487
10	0	0	0	0	545
11	0	0	0	0	533
12	0	0	0	0	531
13	0	0	0	0	491
14	0	0	0	0	548
15	0	0	0	0	508
0	0	0	0	0	506
1	0	0	0	0	490
2	0	0	0	0	534
3	0	0	0	0	476
4	0	0	0	0	579
5	0	0	0	0	510
6	0	0	0	0	552
7	0	0	0	0	492
8	0	0	0	0	519
9	0	0	0	0	495
10	0	0	0	0	520
11	0	0	0	0	563
12	0	0	0	0	579
13	0	0	0	0	475
14	0	0	0	0	512
15	0	0	0	0	489
0	0	0	0	0	520
1	0	0	0	0	483
2	0	0	0	0	538
3	0	0	0	0	488
4	0	0	0	0	595
5	0	0	0	0	502
6	0	0	0	0	505
7	0	0	0	0	475
8	0	0	0	0	516
9	0	0	0	0	531
10	0	0	0	0	518
11	0	0	0	0	495
12	0	0	0	0	581
13	0	0	0	0	437
14	0	0	0	0	551
15	0	0	0	0	575
0	0	0	0	0	476
1	0	0	0	0	539
2	0	0	0	0	530
3	0	0	0	0	474
4	0	0	0	0	557
5	0	0	0	0	472
6	0	0	0	0	537
7	0	0	0	0	523
8	0	0	0	0	518
9	0	0	0	0	537
10	0	0	0	0	487
11	0	0	0	0	470
12	0	0	0	0	618
13	0	0	0	0	518
14	0	0	0	0	506
15	0	0	0	0	411
0	0	0	0	0	615
1	0	0	0	0	501
2	0	0	0	0	551
3	0	0	0	0	700
4	0	0	0	0	419
5	0	0	0	0	582
6	0	0	0	0	480
7	0	0	0	0	399
8	0	0	0	0	652
9	0	0	0	0	421
10	0	0	0	0	510
11	0	0	0	0	603
12	0	0	0	0	394
13	0	0	0	0	580
14	0	0	0	0	667
15	0	0	0	0	254
0	0	0	0	0	544
1	0	0	0	0	525
2	0	0	0	0	191
3	0	0	0	0	1012
4	0	0	0	0	0
5	0	0	0	0	1006
6	0	0	0	0	423
7	0	0	0	0	657
8	0	0	0	0	478
9	0	0	0	0	774
10	0	0	0	0	424
11	0	0	0	0	0
12	0	0	0	0	1021
13	0	0	0	0	106
14	0	0	0	0	702
15	0	0	0	0	1020
0	0	0	0	0	412
1	0	0	0	0	453
2	0	0	0	0	769
3	0	0	0	0	439
4	0	0	0	0	470
5	0	0	0	0	292
6	0	0	0	0	870
7	0	0	0	0	390
8	0	0	0	0	303
9	0	0	0	0	438
10	0	0	0	0	199
11	0	0	0	0	301
12	0	0	0	0	870
13	0	0	0	0	119
14	0	0	0	0	663
15	0	0	0	0	513
0	0	0	0	0	716
1	0	0	0	0	724
2	0	0	0	0	318
3	0	0	0	0	612
4	0	0	0	0	233
5	0	0	0	0	378
6	0	0	0	0	1022
7	0	0	0	0	767
8	0	0	0	0	945
9	0	0	0	0	524
10	0	0	0	0	931
11	0	0	0	0	0
12	0	0	0	0	240
13	0	0	0	0	149
14	0	0	0	0	604
15	0	0	0	0	214
0	0	0	0	0	400
1	0	0	0	0	29
2	0	0	0	0	601
3	0	0	0	0	711
4	0	0	0	0	147
5	0	0	0	0	280
6	0	0	0	0	212
7	0	0	0	0	324
8	0	0	0	0	14
9	0	0	0	0	196
10	0	0	0	0	907
11	0	0	0	0	655
12	0	0	0	0	427
13	0	0	0	0	531
14	0	0	0	0	0
15	0	0	0	0	541
0	0	0	0	0	368
1	0	0	0	0	1022
2	0	0	0	0	189
3	0	0	0	0	420
4	0	0	0	0	809
5	0	0	0	0	190
6	0	0	0	0	374
7	0	0	0	0	807
8	0	0	0	0	0
9	0	0	0	0	347
10	0	0	0	0	559
11	0	0	0	0	268
12	0	0	0	0	403
13	0	0	0	0	231
14	0	0	0	0	1022
15	0	0	0	0	0
0	0	0	0	0	919
1	0	0	0	0	606
2	0	0	0	0	592
3	0	0	0	0	798
4	0	0	0	0	189
5	0	0	0	0	992
6	0	0	0	0	319
7	0	0	0	0	468
8	0	0	0	0	237
9	0	0	0	0	605
10	0	0	0	0	536
11	0	0	0	0	894
12	0	0	0	0	617
13	0	0	0	0	601
14	0	0	0	0	460
15	0	0	0	0	499
0	0	0	0	0	353
1	0	0	0	0	591
2	0	0	0	0	471
3	0	0	0	0	496
4	0	0	0	0	495
5	0	0	0	0	535
6	0	0	0	0	496
7	0	0	0	0	542
8	0	0	0	0	487
9	0	0	0	0	601
10	0	0	0	0	507
11	0	0	0	0	526
12	0	0	0	0	518
13	0	0	0	0	494
14	0	0	0	0	532
15	0	0	0	0	508
0	0	0	0	0	504
1	0	0	0	0	504
2	0	0	0	0	531
3	0	0	0	0	513
4	0	0	0	0	519
5	0	0	0	0	516
6	0	0	0	0	528
7	0	0	0	0	521
8	0	0	0	0	501
9	0	0	0	0	518
10	0	0	0	0	475
11	0	0	0	0	482
12	0	0	0	0	531
13	0	0	0	0	519
14	0	0	0	0	516
15	0	0	0	0	532
0	0	0	0	0	511
1	0	0	0	0	512
2	0	0	0	0	484
3	0	0	0	0	537
4	0	0	0	0	510
5	0	0	0	0	510
6	0	0	0	0	513
7	0	0	0	0	497
8	0	0	0	0	528
9	0	0	0	0	516
10	0	0	0	0	516
11	0	0	0	0	514
12	0	0	0	0	548
13	0	0	0	0	500
14	0	0	0	0	478
15	0	0	0	0	523
0	0	0	0	0	513
1	0	0	0	0	501
2	0	0	0	0	501
3	0	0	0	0	394
4	0	0	0	0	638
5	0	0	0	0	481
6	0	0	0	0	475
7	0	0	0	0	483
8	0	0	0	0	500
9	0	0	0	0	515
10	0	0	0	0	508
11	0	0	0	0	550
12	0	0	0	0	484
13	0	0	0	0	563
14	0	0	0	0	488
15	0	0	0	0	511
0	0	0	0	0	534
1	0	0	0	0	497
2	0	0	0	0	486
3	0	0	0	0	530
4	0	0	0	0	501
5	0	0	0	0	532
6	0	0	0	0	524
7	0	0	0	0	525
8	0	0	0	0	491
9	0	0	0	0	531
10	0	0	0	0	502
11	0	0	0	0	510
12	0	0	0	0	497
13	0	0	0	0	518
14	0	0	0	0	512
15	0	0	0	0	503
0	0	0	0	0	507
1	0	0	0	0	505
2	0	0	0	0	518
3	0	0	0	0	502
4	0	0	0	0	496
5	0	0	0	0	526
6	0	0	0	0	502
7	0	0	0	0	523
8	0	0	0	0	496
9	0	0	0	0	484
10	0	0	0	0	531
11	0	0	0	0	540
12	0	0	0	0	580
13	0	0	0	0	501
14	0	0	0	0	505
15	0	0	0	0	514
0	0	0	0	0	516
1	0	0	0	0	550
2	0	0	0	0	579
3	0	0	0	0	530
4	0	0	0	0	492
5	0	0	0	0	518
6	0	0	0	0	483
7	0	0	0	0	537
8	0	0	0	0	461
9	0	0	0	0	536
10	0	0	0	0	521
11	0	0	0	0	482
12	0	0	0	0	542
13	0	0	0	0	519
14	0	0	0	0	502
15	0	0	0	0	516
0	0	0	0	0	511
1	0	0	0	0	519
2	0	0	0	0	507
3	0	0	0	0	464
4	0	0	0	0	514
5	0	0	0	0	514
6	0	0	0	0	495
7	0	0	0	0	521
8	0	0	0	0	499
9	0	0	0	0	557
10	0	0	0	0	513
11	0	0	0	0	576
12	0	0	0	0	470
13	0	0	0	0	504
14	0	0	0	0	496
15	0	0	0	0	525
0	0	0	0	0	494
1	0	0	0	0	561
2	0	0	0	0	525
3	0	0	0	0	531
4	0	0	0	0	493
5	0	0	0	0	540
6	0	0	0	0	448
7	0	0	0	0	521
8	0	0	0	0	511
9	0	0	0	0	515
10	0	0	0	0	496
11	0	0	0	0	511
12	0	0	0	0	481
13	0	0	0	0	539
14	0	0	0	0	510
15	0	0	0	0	521
0	0	0	0	0	481
1	0	0	0	0	530
2	0	0	0	0	461
3	0	0	0	0	522
4	0	0	0	0	483
5	0	0	0	0	523
6	0	0	0	0	504
7	0	0	0	0	528
8	0	0	0	0	486
9	0	0	0	0	547
10	0	0	0	0	540
11	0	0	0	0	545
12	0	0	0	0	499
13	0	0	0	0	543
14	0	0	0	0	463
15	0	0	0	0	527
0	0	0	0	0	504
1	0	0	0	0	534
2	0	0	0	0	510
3	0	0	0	0	504
4	0	0	0	0	499
5	0	0	0	0	509
6	0	0	0	0	503
7	0	0	0	0	582
8	0	0	0	0	485
9	0	0	0	0	519
10	0	0	0	0	501
11	0	0	0	0	528
12	0	0	0	0	571
13	0	0	0	0	510
14	0	0	0	0	523
15	0	0	0	0	533
0	0	0	0	0	481
1	0	0	0	0	517
2	0	0	0	0	492
3	0	0	0	0	479
4	0	0	0	0	487
5	0	0	0	0	506
6	0	0	0	0	498
7	0	0	0	0	502
8	0	0	0	0	497
9	0	0	0	0	526
10	0	0	0	0	488
11	0	0	0	0	522
12	0	0	0	0	490
13	0	0	0	0	507
14	0	0	0	0	515
15	0	0	0	0	521
0	0	0	0	0	568
1	0	0	0	0	527
2	0	0	0	0	464
3	0	0	0	0	626
4	0	0	0	0	486
5	0	0	0	0	512
6	0	0	0	0	504
7	0	0	0	0	539
8	0	0	0	0	495
9	0	0	0	0	560
10	0	0	0	0	519
11	0	0	0	0	550
12	0	0	0	0	471
13	0	0	0	0	532
14	0	0	0	0	486
15	0	0	0	0	534
0	0	0	0	0	492
1	0	0	0	0	559
2	0	0	0	0	490
3	0	0	0	0	551
4	0	0	0	0	531
5	0	0	0	0	524
6	0	0	0	0	507
7	0	0	0	0	513
8	0	0	0	0	513
9	0	0	0	0	530
10	0	0	0	0	490
11	0	0	0	0	529
12	0	0	0	0	503
13	0	0	0	0	515
14	0	0	0	0	508
15	0	0	0	0	531
0	0	0	0	0	518
1	0	0	0	0	530
2	0	0	0	0	489
3	0	0	0	0	528
4	0	0	0	0	527
5	0	0	0	0	509
6	0	0	0	0	530
7	0	0	0	0	508
8	0	0	0	0	449
9	0	0	0	0	525
10	0	0	0	0	556
11	0	0	0	0	463
12	0	0	0	0	508
13	0	0	0	0	526
14	0	0	0	0	390
15	0	0	0	0	587
0	0	0	0	0	556
1	0	0	0	0	481
2	0	0	0	0	452
3	0	0	0	0	582
4	0	0	0	0	516
5	0	0	0	0	472
6	0	0	0	0	543
7	0	0	0	0	476
8	0	0	0	0	555
9	0	0	0	0	497
10	0	0	0	0	505
11	0	0	0	0	548
12	0	0	0	0	416
13	0	0	0	0	617
14	0	0	0	0	480
15	0	0	0	0	529
0	0	0	0	0	573
1	0	0	0	0	475
2	0	0	0	0	420
3	0	0	0	0	556
4	0	0	0	0	522
5	0	0	0	0	418
6	0	0	0	0	436
7	0	0	0	0	623
8	0	0	0	0	393
9	0	0	0	0	508
10	0	0	0	0	612
11	0	0	0	0	211
12	0	0	0	0	893
13	0	0	0	0	236
14	0	0	0	0	448
15	0	0	0	0	863
0	0	0	0	0	0
